1499685040.00
64.000000
-0.00
-0.00
-0.00
-0.00
-0.00
-0.00
-0.00
-0.00
-0.00
-0.00
0.00
0.01
0.01
-0.00
-0.03
-0.05
-0.05
0.00
0.13
0.36
0.66
1.01
1.37
1.72
2.06
2.40
2.79
3.24
3.80
4.42
5.06
5.66
6.20
6.68
7.15
7.68
8.31
9.14
10.09
11.04
11.88
12.56
13.14
13.76
14.65
15.96
17.91
20.32
22.90
25.38
27.58
29.57
31.68
34.32
37.81
42.54
48.15
54.10
59.83
64.97
69.58
74.14
79.34
85.71
93.76
103.00
112.62
121.73
129.77
136.75
143.30
150.75
157.77
166.64
177.95
191.79
206.97
220.57
228.25
225.36
208.53
176.87
132.76
80.05
23.07
-34.94
-92.44
-149.16
-205.23
-260.37
-313.74
-363.87
-409.83
-450.91
-486.50
-515.74
-537.23
-549.22
-549.96
-538.37
-514.21
-478.67
-433.88
-382.45
-327.02
-269.84
-212.63
-156.66
-102.95
-52.37
-5.90
35.58
71.43
101.35
125.50
144.38
158.69
169.15
176.37
180.75
182.57
182.07
179.51
175.23
169.65
163.18
156.15
148.81
141.30
133.69
126.02
118.33
110.69
103.16
95.80
88.68
81.83
75.25
68.95
62.95
57.25
51.86
46.78
42.03
37.59
33.45
29.61
26.07
22.81
19.83
17.11
14.67
12.48
10.54
8.83
7.35
6.07
4.97
4.05
3.27
2.62
2.09
1.65
1.30
1.01
0.79
0.61
0.48
0.37
0.29
0.24
0.20
0.17
0.16
0.16
0.18
0.20
0.22
0.25
0.29
0.33
0.37
0.41
0.46
0.50
0.55
0.60
0.65
0.71
0.77
0.83
0.90
0.98
1.07
1.18
1.30
1.43
1.55
1.65
1.74
1.82
1.92
2.06
2.25
2.51
2.81
3.15
3.49
3.84
4.19
4.57
5.01
5.53
6.11
6.75
7.39
8.01
8.58
9.14
9.73
10.43
11.28
12.27
13.34
14.37
15.25
15.96
16.51
17.03
17.59
18.23
18.81
19.04
18.58
17.09
14.45
10.71
6.20
1.26
-3.73
-8.60
-13.36
-18.20
-23.27
-28.56
-33.80
-38.54
-42.31
-44.78
-45.91
-45.99
-45.50
-45.07
-45.34
-46.88
-49.83
-53.68
-57.02
-57.84
-54.18
-44.95
-30.55
-12.94
5.07
20.65
31.93
38.31
40.31
39.00
35.52
30.83
25.72
20.93
17.09
14.57
13.40
13.21
13.43
13.65
13.58
13.24
12.75
12.18
11.60
11.02
10.50
10.16
10.09
10.20
10.20
9.68
8.32
6.15
3.53
0.99
-1.03
-2.33
-3.09
-3.60
-4.23
-5.21
-6.64
-8.28
-10.03
-11.83
-13.54
-14.79
-15.00
-13.52
-9.89
-4.18
3.02
10.60
17.49
22.83
26.23
27.73
27.66
26.43
24.44
22.06
19.54
17.09
14.79
12.64
10.59
8.61
6.79
5.29
4.26
3.72
3.53
3.39
2.98
2.01
0.32
-2.04
-4.90
-8.00
-11.05
-13.80
-16.08
-17.91
-19.40
-20.82
-22.42
-24.33
-26.43
-28.28
-29.23
-28.52
-25.59
-20.31
-13.08
-4.72
3.69
11.20
17.21
21.54
24.40
26.14
27.09
27.43
27.23
26.51
25.37
23.95
22.41
20.77
18.98
16.89
14.45
11.81
9.27
7.16
5.64
4.65
3.88
3.01
1.79
0.18
-1.73
-3.80
-5.97
-8.26
-10.67
-13.22
-15.88
-18.74
-21.94
-25.63
-29.65
-33.41
-35.89
-35.98
-32.91
-26.63
-17.97
-8.32
0.82
8.33
13.78
17.31
19.36
20.33
20.41
19.67
18.21
16.33
14.48
13.14
12.60
12.80
13.37
13.81
13.71
13.00
11.92
10.86
10.13
9.75
9.51
8.92
7.59
5.38
2.47
-0.68
-3.61
-6.06
-8.14
-10.26
-12.97
-16.67
-21.41
-26.84
-32.21
-36.58
-39.03
-38.89
-35.89
-30.33
-22.93
-14.71
-6.64
0.55
6.47
11.03
14.30
16.42
17.58
18.01
18.02
17.90
17.83
17.79
17.59
17.02
15.96
14.51
12.88
11.32
9.91
8.59
7.15
5.42
3.32
0.87
-1.76
-4.44
-7.02
-9.45
-11.79
-14.17
-16.79
-19.86
-23.52
-27.69
-31.95
-35.52
-37.40
-36.64
-32.76
-25.91
-16.97
-7.27
1.84
9.40
15.04
18.90
21.49
23.29
24.63
25.62
26.23
26.43
26.29
25.96
25.61
25.28
24.89
24.27
23.28
21.86
20.11
18.18
16.18
14.18
12.16
10.09
7.98
5.84
3.62
1.12
-2.00
-6.08
-11.28
-17.39
-23.76
-29.41
-33.20
-34.23
-32.00
-26.70
-19.08
-10.32
-1.68
5.79
11.48
15.23
17.17
17.58
16.77
15.04
12.73
10.19
7.83
5.95
4.66
3.91
3.53
3.31
3.10
2.77
2.24
1.39
0.15
-1.46
-3.36
-5.41
-7.52
-9.67
-11.92
-14.39
-17.20
-20.49
-24.28
-28.54
-33.00
-37.14
-40.11
-40.95
-38.90
-33.72
-25.93
-16.64
-7.29
0.83
6.90
10.72
12.50
12.71
11.80
10.13
8.03
5.86
4.01
2.86
2.62
3.35
4.81
6.66
8.50
9.94
10.74
10.70
9.78
8.01
5.53
2.55
-0.68
-3.92
-6.99
-9.90
-12.79
-15.87
-19.31
-23.11
-26.96
-30.23
-32.11
-31.82
-28.90
-23.41
-15.93
-7.44
0.96
8.31
14.04
17.97
20.22
21.06
20.81
19.75
18.14
16.25
14.36
12.73
11.55
10.84
10.52
10.37
10.15
9.63
8.69
7.28
5.37
3.00
0.21
-2.91
-6.20
-9.50
-12.65
-15.61
-18.51
-21.59
-25.09
-29.09
-33.28
-36.95
-39.15
-38.94
-35.76
-29.66
-21.29
-11.76
-2.29
6.09
12.72
17.37
20.14
21.29
21.21
20.24
18.78
17.20
15.80
14.80
14.25
14.01
13.82
13.46
12.86
12.13
11.47
11.06
10.87
10.65
10.03
8.65
6.38
3.40
0.12
-2.98
-5.50
-7.36
-8.80
-10.32
-12.51
-15.72
-19.85
-24.23
-27.76
-29.29
-27.96
-23.56
-16.63
-8.24
0.35
8.04
14.17
18.50
21.12
22.18
21.87
20.43
18.18
15.62
13.33
11.84
11.44
12.03
13.16
14.33
15.04
15.12
14.61
13.74
12.71
11.65
10.54
9.25
7.67
5.72
3.38
0.72
-2.12
-4.93
-7.48
-9.57
-11.18
-12.45
-13.75
-15.54
-18.21
-21.92
-26.48
-31.28
-35.39
-37.70
-37.27
-33.57
-26.75
-17.64
-7.52
2.28
10.67
17.11
21.48
23.97
24.88
24.49
23.15
21.31
19.53
18.35
18.12
18.84
20.13
21.51
22.51
22.90
22.72
22.16
21.44
20.68
19.81
18.71
17.25
15.40
13.24
10.87
8.42
5.93
3.39
0.73
-2.10
-5.12
-8.26
-11.38
-14.38
-17.24
-20.12
-23.37
-27.35
-32.21
-37.62
-42.77
-46.45
-47.42
-44.87
-38.73
-29.71
-19.17
-8.61
0.71
8.09
13.41
16.93
19.00
19.94
19.96
19.28
18.16
16.97
16.09
15.74
15.90
16.40
16.96
17.30
17.28
16.81
15.91
14.64
13.10
11.45
9.72
7.84
5.61
2.81
-0.70
-4.85
-9.34
-13.76
-17.76
-21.10
-23.76
-25.87
-27.66
-29.44
-31.55
-34.26
-37.63
-41.37
-44.74
-46.73
-46.33
-42.91
-36.49
-27.70
-17.66
-7.52
1.82
9.85
16.32
21.16
24.31
25.70
25.42
23.83
21.52
19.19
17.43
16.53
16.44
16.93
17.63
18.24
18.53
18.34
17.61
16.37
14.74
12.91
11.01
9.11
7.18
5.15
3.07
1.02
-0.87
-2.51
-3.99
-5.58
-7.65
-10.57
-14.57
-19.61
-25.34
-31.10
-35.99
-39.12
-39.77
-37.55
-32.52
-25.24
-16.54
-7.41
1.18
8.54
14.23
18.18
20.53
21.58
21.66
21.13
20.38
19.73
19.48
19.75
20.53
21.58
22.59
23.21
23.18
22.43
21.06
19.30
17.40
15.54
13.69
11.67
9.22
6.21
2.74
-0.93
-4.37
-7.33
-9.73
-11.72
-13.57
-15.54
-17.90
-20.88
-24.63
-29.09
-33.91
-38.28
-41.19
-41.58
-38.82
-32.90
-24.49
-14.79
-5.10
3.43
10.11
14.73
17.42
18.52
18.39
17.33
15.63
13.61
11.68
10.27
9.80
10.40
11.84
13.60
15.05
15.70
15.43
14.50
13.36
12.44
11.89
11.51
10.92
9.76
7.85
5.31
2.42
-0.55
-3.43
-6.21
-8.89
-11.52
-14.09
-16.71
-19.57
-22.95
-27.03
-31.67
-36.28
-39.86
-41.29
-39.69
-34.72
-26.76
-16.85
-6.36
3.35
11.32
17.13
20.90
23.04
24.03
24.20
23.78
22.90
21.79
20.81
20.33
20.57
21.51
22.81
24.01
24.66
24.56
23.81
22.69
21.58
20.67
19.89
18.84
17.03
14.12
10.10
5.36
0.54
-3.76
-7.14
-9.61
-11.45
-13.12
-15.00
-17.34
-20.34
-24.08
-28.61
-33.76
-39.04
-43.55
-46.21
-46.00
-42.42
-35.70
-26.82
-17.15
-8.04
-0.41
5.41
9.53
12.28
13.95
14.72
14.68
14.03
13.16
12.59
12.79
13.94
15.82
17.83
19.37
20.02
19.80
19.05
18.17
17.45
16.81
15.91
14.39
12.00
8.85
5.31
1.80
-1.33
-3.96
-6.20
-8.33
-10.70
-13.60
-17.26
-21.75
-27.00
-32.69
-38.16
-42.48
-44.62
-43.69
-39.32
-31.85
-22.29
-12.01
-2.29
5.97
12.37
16.93
19.88
21.41
21.72
21.03
19.73
18.33
17.32
17.04
17.50
18.39
19.30
19.89
19.99
19.69
19.20
18.69
18.19
17.57
16.56
14.89
12.35
8.96
4.94
0.68
-3.39
-6.94
-9.86
-12.32
-14.72
-17.51
-21.10
-25.66
-31.05
-36.75
-41.82
-45.18
-45.74
-42.85
-36.51
-27.46
-17.02
-6.63
2.55
9.98
15.64
19.87
23.03
25.26
26.51
26.73
26.06
24.94
23.92
23.45
23.66
24.37
25.16
25.67
25.71
25.25
24.36
23.11
21.57
19.83
17.93
15.83
13.30
10.09
6.04
1.29
-3.72
-8.36
-12.20
-15.22
-17.81
-20.59
-24.07
-28.53
-33.88
-39.85
-46.04
-51.91
-56.77
-59.78
-60.18
-57.59
-52.21
-44.86
-36.79
-29.27
-23.22
-19.10
-16.83
-16.13
-16.60
-17.89
-19.70
-21.70
-23.45
-24.40
-23.99
-21.79
-17.63
-11.61
-4.02
4.75
14.36
24.50
34.88
45.09
54.55
62.65
68.86
72.88
74.77
74.84
73.56
71.32
68.33
64.63
60.08
54.62
48.29
41.35
34.26
27.57
21.65
16.56
11.92
7.03
1.19
-5.96
-14.16
-22.47
-29.46
-33.72
-34.22
-30.67
-23.65
-14.35
-4.28
5.19
13.11
19.08
23.16
25.66
26.95
27.36
27.10
26.38
25.45
24.60
24.10
24.08
24.44
24.91
25.13
24.80
23.83
22.33
20.50
18.55
16.57
14.48
12.16
9.54
6.73
4.03
1.83
0.42
-0.19
-0.26
-0.24
-0.59
-1.59
-3.29
-5.54
-8.04
-10.54
-12.84
-14.81
-16.43
-17.78
-19.15
-20.93
-23.44
-26.69
-30.16
-32.81
-33.39
-30.88
-24.93
-16.04
-5.37
5.66
15.96
24.97
32.67
39.21
44.63
48.70
51.07
51.51
50.11
47.25
43.49
39.23
34.64
29.68
24.26
18.41
12.35
6.36
0.73
-4.41
-8.97
-12.88
-16.06
-18.42
-19.95
-20.77
-21.07
-21.06
-20.86
-20.51
-20.03
-19.50
-19.19
-19.39
-20.42
-22.40
-25.30
-28.93
-33.04
-37.37
-41.54
-44.94
-46.74
-46.06
-42.26
-35.31
-25.93
-15.40
-5.16
3.62
10.39
15.18
18.33
20.21
21.04
20.91
19.97
18.59
17.31
16.66
16.97
18.17
19.88
21.64
23.06
24.00
24.46
24.51
24.17
23.40
22.18
20.46
18.25
15.58
12.48
9.01
5.29
1.50
-2.19
-5.66
-8.91
-12.10
-15.50
-19.36
-23.78
-28.59
-33.33
-37.19
-39.28
-38.80
-35.35
-29.13
-20.91
-11.79
-3.00
4.51
10.18
13.89
15.89
16.61
16.52
16.06
15.55
15.23
15.18
15.38
15.68
15.87
15.79
15.34
14.60
13.76
13.00
12.41
11.83
10.96
9.46
7.14
4.12
0.76
-2.50
-5.35
-7.73
-9.88
-12.22
-15.25
-19.33
-24.55
-30.62
-36.82
-42.09
-45.27
-45.41
-42.13
-35.75
-27.27
-18.10
-9.60
-2.77
1.94
4.64
5.79
5.97
5.69
5.30
5.02
4.98
5.26
5.91
6.86
7.94
8.94
9.64
9.88
9.58
8.74
7.31
5.24
2.50
-0.88
-4.67
-8.55
-12.12
-15.01
-16.97
-17.89
-17.92
-17.44
-17.07
-17.51
-19.32
-22.60
-26.81
-30.82
-33.19
-32.69
-28.83
-22.03
-13.58
-5.09
2.05
7.09
10.00
11.30
11.63
11.50
11.20
10.88
10.68
10.84
11.59
13.02
15.05
17.34
19.45
20.94
21.55
21.20
20.06
18.34
16.26
13.91
11.22
8.12
4.64
1.03
-2.26
-4.75
-6.22
-6.86
-7.31
-8.37
-10.69
-14.37
-18.94
-23.43
-26.70
-27.84
-26.39
-22.42
-16.47
-9.35
-1.95
4.83
10.25
13.78
15.20
14.68
12.69
9.93
7.09
4.63
2.77
1.44
0.53
-0.12
-0.57
-0.84
-1.01
-1.29
-1.92
-3.15
-5.03
-7.38
-9.76
-11.58
-12.38
-11.98
-10.58
-8.76
-7.17
-6.42
-6.86
-8.66
-11.74
-15.89
-20.58
-25.01
-28.10
-28.76
-26.27
-20.55
-12.32
-2.83
6.44
14.31
20.09
23.66
25.35
25.69
25.25
24.46
23.68
23.16
23.09
23.64
24.91
26.99
29.90
33.62
38.12
43.28
48.87
54.53
59.82
64.29
67.60
69.50
69.80
68.33
64.89
59.37
51.87
42.76
32.63
22.22
12.18
3.05
-4.82
-11.17
-15.78
-18.47
-19.08
-17.59
-14.18
-9.25
-3.40
2.65
8.12
12.30
14.55
14.46
11.87
6.85
-0.27
-8.95
-18.49
-28.10
-36.90
-44.16
-49.37
-52.40
-53.50
-53.15
-51.92
-50.22
-48.30
-46.26
-44.23
-42.41
-40.99
-40.12
-39.74
-39.65
-39.62
-39.45
-39.14
-38.77
-38.46
-38.24
-37.93
-37.14
-35.35
-32.06
-26.96
-20.11
-11.98
-3.30
5.12
12.70
19.14
24.45
28.76
32.20
34.83
36.72
38.05
39.20
40.77
43.37
47.41
52.92
59.50
66.54
73.44
79.93
86.01
91.87
97.57
102.95
107.64
111.39
114.32
117.02
120.32
124.88
130.86
137.83
145.16
152.38
159.44
166.64
174.14
181.62
188.13
192.48
193.52
190.42
182.46
168.81
148.52
121.01
86.90
48.53
9.81
-24.90
-52.22
-70.92
-82.13
-88.48
-92.87
-97.30
-102.59
-108.67
-115.21
-121.96
-128.90
-135.84
-142.27
-147.42
-150.51
-151.14
-149.56
-146.57
-143.18
-140.30
-138.36
-137.17
-136.08
-134.15
-130.58
-124.97
-117.45
-108.72
-99.83
-91.74
-85.11
-80.04
-76.13
-72.81
-69.63
-66.45
-63.50
-61.11
-59.56
-58.91
-59.05
-59.85
-61.21
-63.14
-65.60
-68.47
-71.63
-75.01
-78.82
-83.49
-89.51
-97.22
-106.51
-116.87
-127.57
-137.99
-147.89
-157.60
-167.94
-180.00
-194.79
-212.76
-233.44
-254.97
-274.20
-287.10
-289.84
-280.02
-257.67
-225.52
-188.32
-151.42
-119.17
-93.85
-75.45
-62.32
-52.18
-43.16
-34.26
-25.26
-16.54
-8.70
-2.40
1.77
3.61
3.55
2.93
3.90
8.74
18.95
34.49
53.40
72.37
87.91
97.80
101.74
101.20
98.47
95.39
92.65
89.86
86.29
81.79
77.45
75.45
78.26
87.68
103.97
125.71
150.26
174.46
195.26
210.01
216.52
213.16
199.26
175.49
143.90
107.61
70.08
34.18
1.77
-26.33
-49.93
-69.05
-83.63
-93.63
-99.19
-100.79
-99.24
-95.58
-90.99
-86.64
-83.42
-81.70
-81.15
-80.79
-79.43
-76.03
-70.02
-61.28
-50.05
-36.77
-22.10
-6.73
8.92
25.06
42.75
63.62
88.91
118.53
150.43
180.84
205.48
220.88
225.63
220.56
208.19
191.68
173.83
156.64
141.23
128.12
117.43
108.99
102.35
96.82
91.61
85.97
79.44
71.89
63.54
54.84
46.34
38.63
32.24
27.58
24.90
24.16
24.97
26.63
28.18
28.67
27.33
23.67
17.58
9.24
-0.78
-11.48
-21.33
-28.51
-31.35
-29.00
-22.08
-12.68
-3.93
1.04
0.18
-6.93
-19.06
-33.84
-48.34
-59.64
-65.14
-62.88
-52.09
-33.58
-10.02
14.54
35.66
49.86
55.56
53.49
46.15
36.85
28.65
23.57
22.38
24.72
29.46
35.15
40.34
43.94
45.36
44.65
42.33
39.23
36.21
33.87
32.51
31.96
31.77
31.37
30.29
28.27
25.39
21.99
18.57
15.67
13.72
12.88
12.95
13.44
13.62
12.85
10.82
7.64
3.93
0.50
-1.96
-3.14
-3.20
-2.64
-2.02
-1.76
-2.02
-2.68
-3.49
-4.20
-4.66
-4.88
-4.92
-4.91
-4.88
-4.81
-4.61
-4.29
-3.90
-3.55
-3.39
-3.45
-3.72
-4.08
-4.44
-4.75
-5.05
-5.47
-6.12
-7.00
-7.96
-8.80
-9.42
-9.96
-10.92
-12.94
-16.50
-21.52
-27.28
-32.55
-36.07
-37.12
-35.81
-32.97
-29.74
-27.01
-25.06
-23.60
-22.00
-19.72
-16.64
-13.07
-9.71
-7.33
-6.60
-7.81
-10.88
-15.49
-21.29
-28.15
-36.22
-45.86
-57.17
-69.62
-81.91
-92.14
-98.21
-98.14
-90.46
-74.28
-49.93
-19.35
13.48
43.08
63.73
71.55
66.07
50.59
30.99
13.38
1.97
-2.03
0.01
5.56
12.35
19.12
25.46
31.40
36.92
42.04
47.13
53.20
61.80
74.39
91.54
112.27
133.93
152.74
164.77
167.07
158.39
139.49
112.77
81.72
50.09
21.21
-2.52
-19.83
-30.66
-35.88
-36.95
-35.53
-33.24
-31.47
-31.32
-33.47
-38.00
-44.22
-50.77
-55.97
-58.37
-57.31
-53.12
-46.95
-40.25
-34.21
-29.54
-26.39
-24.66
-24.15
-24.71
-26.21
-28.52
-31.41
-34.69
-38.16
-41.67
-44.98
-47.76
-49.63
-50.32
-49.87
-48.77
-47.91
-48.29
-50.71
-55.34
-61.61
-68.33
-73.98
-77.22
-77.40
-74.70
-70.10
-65.05
-61.00
-58.89
-58.89
-60.29
-61.78
-61.78
-58.90
-52.27
-41.69
-27.68
-11.23
6.36
23.81
39.98
53.99
65.26
73.50
78.69
81.09
81.21
79.73
77.35
74.64
71.91
69.21
66.53
63.85
61.28
59.08
57.55
56.83
56.89
57.47
58.20
58.71
58.71
58.04
56.71
54.83
52.64
50.46
48.64
47.34
46.45
45.46
43.63
40.40
35.71
30.25
25.30
22.25
21.88
23.95
27.17
29.76
30.27
28.13
23.76
18.17
12.25
6.32
0.06
-7.08
-15.32
-24.22
-32.72
-39.59
-44.01
-45.93
-46.02
-45.23
-44.26
-43.25
-41.83
-39.38
-35.52
-30.42
-24.73
-19.34
-15.02
-12.39
-11.81
-13.63
-17.95
-24.39
-31.70
-37.66
-39.62
-35.60
-25.42
-11.29
2.79
12.52
15.14
10.53
1.19
-9.04
-16.66
-19.89
-18.94
-15.35
-10.91
-6.71
-2.93
0.82
4.77
8.64
11.59
12.63
11.16
7.39
2.32
-2.63
-6.26
-8.14
-8.73
-9.16
-10.57
-13.50
-17.61
-21.85
-24.97
-26.17
-25.46
-23.65
-21.98
-21.61
-23.20
-26.70
-31.33
-36.10
-40.27
-43.62
-46.50
-49.44
-52.91
-57.09
-61.85
-66.77
-71.38
-75.12
-77.06
-75.74
-69.40
-56.78
-38.17
-15.83
6.82
26.47
41.46
52.45
61.83
72.16
84.27
96.27
104.01
103.46
91.48
66.77
30.30
-14.44
-61.71
-104.68
-137.06
-154.74
-155.28
-139.91
-113.23
-81.60
-50.49
-22.72
1.37
22.87
43.51
67.56
97.87
133.74
170.21
200.20
217.71
220.33
210.38
194.28
183.46
186.83
206.72
238.55
274.63
308.85
338.76
364.82
366.13
329.74
257.26
165.29
73.26
-7.00
-71.95
-122.42
-160.54
-188.27
-203.38
-203.83
-190.99
-169.57
-145.62
-124.33
-108.66
-99.28
-94.95
-91.04
-83.41
-70.71
-54.79
-38.97
-25.91
-16.65
-11.27
-9.23
-9.03
-9.64
-11.01
-13.74
-18.30
-24.27
-30.69
-37.43
-45.40
-56.61
-73.03
-95.24
-121.08
-146.13
-164.40
-170.69
-163.84
-147.01
-127.70
-113.72
-109.94
-116.13
-128.87
-143.40
-156.15
-166.70
-166.12
-147.58
-107.16
-45.75
30.62
110.02
177.13
225.24
252.14
261.56
261.48
261.69
266.33
276.83
284.92
280.01
254.32
207.61
148.32
89.06
39.76
3.39
-20.22
-34.80
-45.54
-57.85
-70.86
-85.22
-101.63
-120.27
-140.64
-161.61
-182.30
-200.88
-214.70
-221.46
-220.72
-214.09
-204.22
-193.20
-181.74
-169.16
-153.03
-130.65
-100.92
-65.29
-27.74
7.13
35.85
55.98
66.59
68.69
63.91
52.99
36.40
14.15
-11.79
-37.03
-57.55
-71.08
-77.34
-78.51
-78.84
-81.44
-88.66
-100.18
-104.00
-92.35
-67.13
-37.61
-12.36
1.59
13.48
32.63
64.12
107.60
158.05
205.17
240.90
262.79
268.75
262.46
248.88
231.07
207.52
176.88
133.73
78.45
17.69
-40.53
-87.03
-118.11
-136.60
-149.27
-163.42
-182.51
-204.64
-223.40
-233.11
-231.10
-220.01
-204.47
-186.88
-166.38
-139.81
-106.89
-70.44
-37.14
-12.60
2.40
13.83
31.90
64.76
113.67
169.25
219.03
252.18
264.33
257.58
238.43
214.70
186.38
170.22
169.71
188.68
227.47
281.46
341.03
393.94
429.89
444.17
439.79
421.77
397.58
372.75
349.62
327.94
306.62
284.61
260.73
233.90
200.11
156.26
100.79
35.05
-37.05
-110.46
-181.29
-247.97
-310.22
-369.56
-425.53
-475.98
-517.97
-549.32
-569.88
-581.59
-587.81
-591.73
-596.10
-601.84
-608.54
-615.13
-620.28
-622.38
-619.18
-607.55
-583.71
-544.68
-489.12
-418.31
-336.14
-248.16
-160.04
-76.01
1.95
73.91
140.73
202.90
259.75
309.43
349.69
378.95
397.04
405.35
406.05
400.60
389.55
372.99
351.45
326.56
300.76
276.44
255.08
236.71
219.73
202.55
184.68
166.66
148.66
129.09
104.85
73.29
34.26
-9.45
-52.61
-89.60
-116.70
-133.49
-142.48
-147.10
-149.10
-142.71
-124.26
-96.61
-69.06
-51.84
-50.09
-61.99
-79.90
-93.70
-94.31
-76.72
-42.84
-0.01
42.78
78.83
106.32
123.74
134.18
143.25
156.95
176.04
196.79
213.46
221.04
216.65
199.96
173.45
130.84
77.17
23.83
-18.54
-46.01
-60.35
-64.84
-62.16
-54.31
-44.52
-35.52
-34.41
-47.75
-77.03
-117.82
-161.60
-199.49
-225.77
-239.33
-234.23
-212.97
-181.97
-146.69
-110.67
-76.76
-45.17
-17.99
1.98
14.14
18.43
12.61
-0.68
-16.68
-30.36
-37.84
-37.01
-26.62
-5.60
24.93
62.13
101.52
136.22
158.45
162.37
146.77
116.89
83.57
58.93
53.16
72.06
115.13
176.44
246.48
314.21
369.22
403.22
411.05
391.73
348.62
287.52
214.91
136.88
58.75
-14.74
-79.65
-134.00
-178.71
-217.12
-253.54
-290.41
-326.26
-355.85
-372.71
-372.56
-355.63
-326.81
-293.11
-260.68
-232.51
-207.94
-183.85
-156.51
-123.53
-85.18
-44.86
-8.20
18.68
31.25
28.29
12.54
-9.95
-31.20
-43.38
-40.54
-19.99
16.92
64.87
115.46
158.98
186.63
192.68
175.82
139.32
90.10
36.91
-11.33
-46.79
-63.75
-59.28
-34.25
6.15
52.81
94.66
121.80
128.70
116.15
90.45
60.93
35.77
19.00
9.84
4.44
-1.57
-10.82
-23.49
-37.93
-51.94
-64.61
-76.98
-91.29
-109.31
-130.64
-151.89
-167.44
-171.75
-161.45
-138.06
-107.76
-78.20
-54.58
-37.29
-22.02
-2.03
28.98
75.44
136.59
206.33
275.34
334.10
375.51
396.34
397.35
382.58
359.75
334.94
310.85
287.69
264.95
242.14
218.68
193.70
167.43
144.22
127.54
117.98
113.24
109.40
102.36
89.73
71.98
37.40
-11.65
-63.03
-106.16
-141.19
-175.06
-212.26
-250.51
-283.29
-305.16
-311.37
-303.60
-288.54
-272.95
-259.60
-247.00
-229.80
-205.55
-172.83
-130.29
-80.27
-27.99
21.06
63.54
98.36
125.74
138.34
133.16
114.62
89.38
60.76
28.09
-9.57
-50.04
-87.21
-115.59
-128.31
-120.78
-95.06
-59.23
-23.58
3.81
18.07
17.30
4.27
-15.98
-36.04
-50.19
-56.18
-53.81
-42.77
-22.22
6.93
42.45
79.89
112.83
134.08
138.50
125.20
97.15
61.20
18.32
-29.31
-78.06
-123.03
-158.48
-178.97
-180.08
-160.49
-119.54
-68.44
-20.81
11.60
23.32
14.61
-10.78
-45.24
-78.98
-102.61
-110.64
-100.98
-76.52
-43.59
-8.76
21.28
43.79
60.05
73.48
86.17
98.58
108.69
113.23
109.99
98.61
81.19
60.99
41.04
23.17
8.20
-4.48
-16.60
-29.12
-43.10
-59.46
-78.65
-99.56
-118.65
-130.10
-127.85
-108.53
-71.60
-22.48
28.26
68.61
90.17
91.45
77.42
56.32
36.18
25.77
30.80
52.48
88.21
133.52
183.52
233.16
277.00
294.75
275.17
223.61
158.15
96.99
50.51
21.93
9.09
7.60
7.14
1.16
-13.82
-39.81
-76.18
-119.26
-161.98
-192.97
-202.03
-183.23
-134.25
-59.03
29.59
113.80
175.79
205.09
200.97
169.49
120.41
65.34
14.52
-27.90
-61.91
-90.65
-115.48
-129.41
-126.93
-109.00
-91.21
-80.20
-79.56
-86.33
-99.90
-117.66
-135.46
-150.69
-162.59
-171.82
-178.29
-183.04
-175.25
-150.43
-111.45
-66.29
-23.14
13.66
42.76
65.23
81.38
90.90
90.81
79.87
60.53
37.59
18.29
10.17
18.93
44.71
81.78
118.54
143.34
149.12
130.09
88.66
34.08
-22.45
-72.01
-109.11
-132.98
-149.85
-161.45
-169.79
-177.97
-188.63
-202.83
-219.82
-236.54
-249.92
-257.71
-259.02
-247.27
-222.48
-187.84
-147.53
-105.05
-61.42
-16.72
28.56
72.91
112.89
143.48
161.16
165.11
157.34
143.37
127.94
112.66
96.14
75.60
48.02
12.68
-27.49
-66.97
-95.65
-106.77
-100.68
-83.86
-64.46
-48.59
-37.77
-27.59
-11.90
19.29
68.43
127.58
183.22
224.68
248.69
258.76
264.44
274.79
302.57
351.82
415.28
479.51
533.15
570.78
591.43
599.62
553.15
439.68
286.48
138.76
23.92
-56.11
-105.47
-144.21
-182.73
-224.74
-261.24
-284.45
-293.21
-289.94
-275.05
-248.98
-217.10
-185.07
-158.51
-133.60
-106.39
-76.94
-50.11
-31.40
-24.19
-29.54
-41.09
-54.70
-61.04
-52.42
-26.29
12.53
55.17
92.63
117.65
127.64
120.42
97.90
57.52
2.14
-62.76
-128.55
-184.39
-221.20
-223.77
-190.41
-136.86
-86.04
-51.34
-33.45
-25.23
-18.85
-12.30
-5.81
-2.83
-4.98
-9.98
-12.55
-9.06
0.57
14.82
29.28
41.42
48.59
51.34
53.49
59.21
68.62
77.38
79.44
70.10
47.97
14.66
-24.86
-64.02
-97.21
-122.32
-140.99
-151.32
-154.63
-152.53
-146.96
-139.48
-131.18
-122.82
-114.91
-107.28
-99.01
-89.72
-79.26
-68.49
-59.02
-52.59
-50.21
-51.68
-55.60
-60.01
-63.97
-67.15
-69.58
-71.07
-70.79
-67.37
-59.41
-46.11
-27.62
-5.39
18.81
43.31
66.69
87.67
105.04
117.72
125.17
127.66
126.15
122.11
117.00
111.69
106.19
99.80
91.54
80.66
67.03
51.08
33.78
16.31
-0.28
-15.17
-27.75
-37.57
-44.41
-48.43
-50.29
-51.15
-52.36
-54.73
-58.30
-62.35
-65.81
-67.71
-67.77
-66.60
-65.33
-65.11
-66.36
-68.71
-71.11
-72.26
-71.08
-67.03
-60.30
-51.44
-41.12
-29.50
-16.56
-2.40
12.51
27.34
41.02
52.31
60.43
65.11
67.78
70.36
74.57
81.35
90.92
102.71
114.99
125.89
133.43
138.13
141.19
143.32
144.50
144.35
142.52
137.81
129.96
118.54
106.62
97.22
91.47
88.60
87.15
86.02
83.30
78.95
72.77
69.03
71.78
82.63
100.91
125.15
154.68
188.12
226.48
242.91
219.16
155.00
67.61
-22.79
-102.90
-156.36
-186.74
-196.05
-187.25
-161.68
-122.84
-82.83
-53.50
-42.90
-52.31
-78.80
-115.14
-155.56
-194.18
-228.04
-256.97
-281.16
-299.94
-311.85
-317.87
-319.95
-322.24
-326.48
-331.58
-333.79
-327.67
-308.65
-274.89
-228.92
-174.78
-116.63
-55.75
8.51
76.33
145.54
210.85
265.57
303.62
322.80
325.29
316.95
304.34
292.32
282.65
274.53
266.80
258.44
249.21
239.38
229.29
218.74
207.27
194.28
179.33
163.64
148.46
134.34
121.45
110.13
100.36
92.35
85.72
79.45
74.24
70.40
67.02
62.66
56.24
46.26
32.48
15.62
-1.69
-12.35
-9.70
8.65
39.92
77.66
113.46
142.05
162.29
161.38
138.67
105.18
73.73
50.32
41.14
42.98
55.47
78.29
108.69
140.98
167.81
181.08
176.34
156.05
127.78
102.42
87.95
85.95
93.11
101.27
100.60
84.61
53.21
11.26
-33.35
-74.41
-109.26
-137.35
-159.70
-177.88
-192.32
-202.02
-206.40
-205.27
-200.31
-194.65
-191.22
-191.93
-197.08
-205.01
-212.52
-216.62
-215.49
-209.35
-199.94
-189.10
-177.50
-164.65
-149.80
-133.25
-116.80
-102.90
-93.14
-87.12
-82.68
-76.45
-65.47
-48.61
-26.95
-3.05
20.47
42.10
61.83
79.84
96.54
111.76
124.13
131.01
129.46
117.52
95.08
63.77
24.41
-20.47
-66.31
-107.51
-139.66
-160.80
-171.70
-175.23
-175.27
-179.53
-191.71
-210.06
-229.65
-246.94
-261.74
-276.02
-291.74
-309.41
-334.91
-369.64
-409.57
-448.17
-481.25
-507.92
-528.48
-542.66
-549.54
-557.57
-571.22
-587.91
-600.13
-601.22
-587.87
-558.98
-514.49
-401.93
-209.27
29.86
258.54
437.44
556.59
623.07
649.25
647.73
634.59
608.20
567.78
517.65
464.91
413.60
363.33
311.97
258.25
201.77
139.68
75.56
19.36
-16.92
-26.12
-9.02
27.06
71.65
114.44
143.71
154.82
151.76
144.36
142.49
151.20
169.48
191.25
208.38
212.55
201.63
180.72
158.83
143.17
135.60
132.67
128.48
118.20
99.86
75.49
49.96
28.53
14.96
10.91
16.40
30.10
49.28
70.31
89.31
103.68
112.98
118.27
121.02
122.05
120.76
115.40
104.32
86.23
61.62
32.82
3.38
-22.62
-41.54
-51.05
-53.50
-51.09
-48.38
-49.04
-52.76
-56.23
-56.11
-51.46
-44.62
-40.08
-41.88
-51.99
-68.83
-87.58
-102.29
-107.80
-101.47
-84.31
-60.62
-36.35
-17.45
-7.65
-7.01
-13.86
-25.41
-38.19
-49.05
-55.92
-58.14
-56.70
-53.50
-50.55
-49.70
-51.93
-56.64
-62.23
-66.95
-69.53
-69.76
-68.12
-65.49
-63.03
-61.62
-60.51
-57.39
-49.98
-36.72
-17.53
6.21
31.87
55.64
73.34
83.13
85.93
85.21
85.81
92.67
109.85
139.40
180.30
220.31
244.27
240.40
207.42
154.24
93.69
37.17
-8.04
-39.66
-59.77
-71.67
-78.35
-81.46
-81.79
-79.62
-74.89
-67.09
-56.05
-42.83
-29.29
-17.20
-8.45
-4.87
-7.44
-15.13
-24.87
-32.50
-34.59
-28.46
-12.80
11.81
41.67
69.76
87.53
88.14
69.16
33.12
-13.27
-62.10
-103.84
-129.17
-133.40
-120.06
-98.36
-77.12
-61.56
-52.99
-50.56
-52.04
-54.41
-54.33
-48.81
-37.22
-19.64
0.75
18.72
29.40
30.58
23.09
9.70
-6.34
-22.25
-36.13
-47.30
-55.35
-59.75
-59.98
-56.02
-48.82
-39.93
-30.74
-21.92
-13.64
-5.81
1.60
8.46
14.36
18.71
21.05
21.42
20.42
18.87
17.59
17.20
18.07
20.15
22.93
25.56
27.15
27.13
25.37
22.37
19.00
16.21
14.68
14.59
15.49
16.56
16.86
15.62
12.51
7.72
2.02
-3.38
-7.11
-8.05
-5.60
0.07
8.16
17.51
26.90
35.40
42.39
47.53
50.74
52.11
51.90
50.54
48.56
46.37
44.30
42.52
41.09
40.11
39.59
39.46
39.54
39.51
39.11
38.11
36.41
33.89
30.42
25.82
20.02
13.17
5.59
-2.27
-10.08
-17.70
-25.25
-32.89
-40.57
-47.89
-54.03
-57.96
-58.73
-55.77
-49.14
-39.57
-28.25
-16.51
-5.57
3.76
11.15
16.61
20.41
22.88
24.34
25.05
25.25
25.10
24.78
24.44
24.28
24.46
25.12
26.26
27.69
29.14
30.16
30.42
29.72
28.22
26.30
24.51
23.28
22.74
22.66
22.40
21.28
18.79
14.90
10.13
5.44
1.68
-0.71
-1.89
-2.75
-4.21
-7.11
-11.66
-17.45
-23.40
-28.12
-30.26
-28.88
-24.12
-17.17
-10.50
-6.76
-8.09
-14.67
-24.24
-32.68
-35.19
-28.34
-12.09
9.82
30.51
42.80
43.00
31.31
10.88
-11.29
-32.17
-49.57
-62.86
-72.53
-81.01
-91.77
-106.68
-124.43
-140.82
-148.96
-141.32
-118.61
-81.11
-32.15
22.45
75.31
117.20
141.48
145.94
133.01
107.96
77.73
48.54
24.67
7.44
-4.58
-15.51
-28.13
-41.81
-52.02
-56.12
-54.26
-48.18
-41.24
-37.28
-38.35
-43.58
-49.64
-52.45
-48.67
-36.75
-17.26
7.23
33.02
56.46
74.95
87.19
92.97
92.95
88.40
80.84
71.52
61.74
52.97
46.85
44.34
45.15
47.59
49.35
48.39
43.60
35.24
24.80
14.39
5.72
-0.39
-4.11
-6.14
-7.18
-7.79
-8.27
-8.75
-9.32
-10.12
-11.38
-13.30
-15.95
-19.32
-23.28
-27.60
-31.87
-35.47
-37.60
-37.49
-34.64
-29.04
-21.28
-12.51
-4.07
2.78
7.29
9.39
9.64
9.10
8.81
9.51
11.40
14.12
17.07
19.65
21.63
23.15
24.63
26.51
28.96
31.81
34.62
36.80
37.94
38.00
37.38
36.86
37.23
39.00
42.16
46.15
50.16
53.46
55.80
57.61
59.94
64.23
71.99
84.29
101.17
120.99
140.15
153.51
156.12
145.47
123.02
94.06
65.78
44.70
34.68
36.40
48.18
67.02
89.36
111.05
127.32
133.38
125.84
104.25
71.52
32.97
-5.82
-40.92
-70.74
-95.31
-115.13
-130.52
-141.91
-150.63
-159.15
-170.40
-186.37
-206.44
-226.79
-241.40
-244.45
-232.90
-208.05
-175.10
-141.09
-112.14
-91.41
-78.73
-71.76
-67.68
-64.70
-62.30
-60.70
-59.95
-59.33
-57.56
-53.43
-46.48
-37.30
-27.15
-17.43
-9.01
-1.98
4.02
9.63
15.46
21.69
27.86
33.06
36.42
37.47
36.32
33.42
29.63
26.00
23.32
21.79
20.93
19.88
17.90
14.68
9.96
4.27
-1.21
-5.30
-7.58
-8.55
-9.23
-10.62
-13.22
-18.39
-26.23
-35.16
-43.02
-48.59
-52.10
-54.66
-57.46
-61.23
-69.05
-81.87
-97.22
-111.00
-120.42
-125.15
-126.38
-125.62
-123.91
-126.39
-135.08
-147.08
-157.17
-162.41
-163.60
-163.60
-165.21
-170.23
-185.75
-215.03
-254.79
-297.55
-336.65
-367.76
-388.11
-396.39
-353.61
-251.22
-117.97
2.87
88.17
140.83
175.38
204.52
233.54
261.05
276.83
275.78
262.76
248.63
241.30
242.03
245.78
246.04
238.63
218.71
187.81
154.07
127.85
114.95
114.73
122.23
131.88
139.87
142.25
139.16
132.37
126.06
122.60
121.41
120.20
116.85
110.45
100.30
87.53
74.98
65.95
62.03
62.62
65.77
69.24
71.04
69.09
61.98
49.24
31.57
10.14
-13.53
-37.68
-60.43
-80.03
-95.08
-104.73
-108.87
-108.25
-104.61
-100.47
-98.39
-100.14
-106.09
-115.14
-125.28
-134.29
-140.58
-143.63
-143.87
-142.38
-140.28
-138.40
-137.12
-136.39
-135.80
-134.69
-132.27
-127.83
-120.94
-111.51
-99.84
-86.50
-72.05
-56.90
-41.29
-25.52
-10.14
4.08
16.44
26.75
35.79
45.05
56.21
70.27
87.17
105.93
125.33
144.63
163.85
183.37
203.30
222.79
240.03
252.62
258.14
254.46
239.91
213.34
174.85
126.59
73.31
21.85
-20.51
-48.36
-60.15
-58.50
-49.04
-38.07
-30.27
-27.54
-29.30
-33.82
-39.55
-45.84
-52.77
-60.49
-68.57
-75.92
-81.16
-83.22
-81.71
-76.94
-69.43
-59.53
-47.22
-32.27
-14.73
4.65
24.41
42.70
57.89
69.10
76.51
81.11
84.22
86.90
89.42
91.22
91.21
88.28
81.81
71.83
58.89
43.92
27.93
12.00
-2.66
-14.77
-23.14
-27.01
-26.24
-21.37
-13.29
-2.78
9.92
25.12
43.37
64.82
88.73
113.24
135.77
153.67
165.01
169.12
166.62
159.19
149.24
139.23
131.14
126.11
124.30
124.97
126.82
128.14
127.36
123.41
115.88
105.00
91.61
77.01
62.68
49.88
38.90
29.13
19.38
8.22
-5.49
-22.04
-40.48
-58.51
-73.07
-82.05
-84.19
-79.13
-67.33
-50.00
-28.86
-5.41
19.36
44.82
68.56
88.58
104.31
116.66
126.67
133.90
136.07
129.65
111.18
76.00
23.11
-43.56
-116.27
-187.13
-250.92
-305.28
-349.15
-381.54
-404.75
-420.24
-428.41
-429.65
-426.37
-423.32
-425.03
-432.72
-419.65
-366.16
-269.91
-148.82
-26.48
80.99
167.04
231.59
278.71
313.04
331.65
330.99
311.30
278.53
241.87
209.81
187.00
175.53
172.72
169.67
157.92
133.59
98.80
59.40
21.76
-9.36
-31.41
-44.54
-52.47
-58.93
-66.10
-74.08
-81.98
-88.98
-94.58
-98.27
-99.70
-99.30
-97.04
-92.34
-84.49
-73.35
-59.57
-44.29
-28.47
-12.82
1.91
15.19
26.68
36.24
44.05
50.67
57.10
64.52
73.65
84.38
95.54
105.01
110.21
108.83
99.47
82.24
59.06
33.51
10.21
-6.36
-13.43
-11.23
-3.23
5.02
8.01
2.69
-10.32
-27.20
-42.77
-52.69
-54.79
-49.02
-36.48
-18.22
5.09
32.65
62.67
91.87
116.10
131.69
136.85
132.26
120.71
105.87
90.99
78.20
68.18
60.69
54.94
50.13
45.68
41.46
37.73
34.92
33.24
32.26
30.61
26.48
18.37
5.62
-11.51
-32.59
-57.36
-85.64
-116.91
-149.56
-180.44
-205.57
-221.67
-227.70
-225.54
-218.80
-210.91
-203.47
-196.08
-186.72
-173.10
-154.30
-131.45
-107.86
-87.24
-72.03
-62.78
-59.27
-59.78
-61.63
-62.37
-60.66
-58.00
-56.57
-57.82
-62.07
-70.90
-84.57
-101.69
-120.29
-138.39
-157.47
-178.88
-202.69
-228.20
-258.04
-292.94
-329.30
-359.46
-372.90
-364.23
-331.23
-275.86
-206.17
-139.68
-93.24
-75.81
-86.16
-113.85
-150.38
-187.73
-220.27
-214.59
-158.31
-68.10
23.50
78.41
106.72
120.40
125.89
130.07
133.66
130.90
117.46
93.48
62.87
32.39
3.38
-22.86
-44.04
-58.68
-69.57
-78.32
-82.48
-76.10
-51.92
-9.85
46.01
109.06
171.50
225.29
267.09
299.76
330.02
365.04
405.88
449.44
490.12
521.30
536.83
533.96
514.45
483.45
447.51
410.76
375.04
340.32
305.41
268.95
230.76
192.13
155.05
121.20
90.68
62.72
36.51
11.92
-10.08
-27.96
-40.60
-48.12
-52.08
-54.84
-58.64
-64.78
-73.25
-83.06
-92.78
-101.11
-107.09
-110.18
-110.12
-106.85
-100.60
-91.87
-81.58
-70.96
-61.46
-54.37
-50.55
-50.15
-52.59
-56.81
-61.69
-66.40
-70.68
-74.66
-78.70
-82.94
-87.16
-90.76
-93.01
-93.33
-91.46
-87.56
-81.96
-75.08
-67.28
-58.88
-50.25
-41.90
-34.40
-28.26
-23.77
-20.83
-19.05
-17.90
-16.89
-15.68
-14.04
-11.95
-9.40
-6.54
-3.60
-0.87
1.39
3.08
4.31
5.33
6.42
7.72
9.21
10.74
12.22
13.68
15.27
17.11
19.07
20.69
21.23
19.89
16.23
10.37
3.09
-4.37
-10.72
-15.03
-16.99
-16.90
-15.53
-13.69
-12.01
-10.80
-10.09
-9.78
-9.76
-9.98
-10.42
-11.02
-11.65
-12.13
-12.35
-12.27
-11.94
-11.51
-11.11
-10.91
-11.10
-11.88
-13.52
-16.24
-20.13
-25.08
-30.80
-36.81
-42.68
-48.08
-52.88
-57.13
-60.99
-64.65
-68.24
-71.76
-74.98
-77.32
-77.95
-75.96
-70.69
-62.13
-51.12
-39.21
-28.18
-19.37
-13.22
-9.07
-5.49
-0.88
5.92
15.24
26.54
38.67
50.35
60.50
68.55
74.53
78.98
82.81
87.00
92.31
99.07
107.11
115.80
124.29
131.71
137.49
141.56
144.28
146.33
148.16
149.59
149.48
145.94
136.92
121.07
98.61
71.65
43.90
19.69
2.55
-5.85
-6.11
-0.71
7.15
14.71
20.51
24.60
28.07
32.39
38.66
47.23
57.61
68.57
78.55
85.95
89.55
88.79
83.80
75.40
64.83
53.50
42.81
34.00
27.62
23.21
19.05
13.07
3.47
-10.60
-28.82
-49.58
-70.39
-88.75
-102.92
-112.47
-117.90
-120.57
-122.35
-125.17
-130.35
-137.57
-145.36
-151.75
-155.42
-155.14
-150.44
-141.74
-130.11
-116.64
-100.71
-81.81
-60.60
-40.56
-24.20
-13.46
-9.27
-11.81
-20.13
-29.45
-35.06
-34.20
-29.19
-20.17
-7.25
8.70
24.39
35.48
42.71
48.05
53.11
54.87
56.45
62.61
77.47
100.95
130.11
166.62
211.23
261.59
307.24
345.08
375.42
400.57
420.97
401.19
322.63
195.48
86.73
11.44
-31.32
-57.55
-74.26
-87.33
-101.25
-112.93
-118.64
-117.51
-117.50
-120.19
-124.63
-128.16
-130.04
-130.17
-124.33
-109.72
-87.46
-66.60
-51.32
-42.88
-39.69
-40.17
-42.35
-41.38
-33.59
-18.39
-0.99
15.53
29.03
38.39
42.25
39.86
32.70
22.58
10.46
-5.08
-24.15
-45.99
-68.84
-90.69
-109.35
-122.35
-128.43
-128.01
-123.41
-116.62
-108.94
-100.55
-90.97
-79.51
-65.91
-51.02
-36.45
-23.44
-11.95
-0.77
11.55
25.44
39.89
52.78
61.55
64.47
61.91
56.29
50.71
47.23
46.01
45.91
45.28
42.32
35.34
23.49
7.25
-11.96
-32.00
-50.44
-64.20
-68.41
-58.52
-35.45
-6.36
20.25
38.70
49.22
52.95
50.81
43.59
32.01
16.31
-3.27
-24.17
-42.50
-54.27
-56.78
-49.38
-34.18
-15.78
-0.59
6.08
2.53
-9.42
-24.40
-36.47
-42.48
-45.18
-47.53
-51.40
-56.89
-62.78
-66.24
-66.63
-65.32
-64.53
-65.81
-69.02
-72.95
-76.04
-77.03
-75.61
-72.70
-69.87
-68.58
-69.55
-72.25
-75.71
-78.71
-80.04
-78.79
-74.67
-67.96
-59.36
-49.67
-39.34
-28.76
-18.27
-8.21
1.19
9.67
17.13
23.48
28.71
32.99
36.49
39.40
42.05
44.83
47.98
51.38
54.49
56.57
57.26
56.62
55.11
53.28
51.50
49.78
47.73
44.81
40.64
35.78
31.18
27.74
25.87
25.31
25.27
24.70
22.79
19.47
16.88
17.87
24.80
38.27
56.80
77.28
95.78
108.62
113.23
110.64
103.58
95.42
88.96
86.24
88.42
95.58
106.60
119.32
133.65
149.46
166.46
184.03
202.03
221.37
243.54
269.37
283.36
273.17
234.34
174.35
106.78
43.57
-8.01
-44.71
-65.88
-72.35
-63.49
-40.74
-7.99
28.02
60.06
82.63
92.79
90.59
78.37
61.22
42.62
24.56
7.47
-8.77
-23.79
-37.02
-48.74
-61.29
-70.40
-76.09
-79.93
-84.16
-90.26
-98.18
-106.41
-112.89
-116.11
-115.13
-111.29
-106.05
-100.24
-93.41
-83.98
-70.39
-52.45
-31.98
-12.21
2.43
8.98
6.61
-3.50
-19.15
-38.26
-59.36
-81.32
-102.59
-121.24
-134.39
-139.15
-133.84
-118.77
-96.24
-69.67
-42.38
-16.69
6.17
26.05
43.13
57.50
69.01
77.55
83.51
87.94
92.38
98.24
106.38
116.70
128.19
139.14
147.48
151.13
148.34
137.99
119.85
94.60
63.61
28.59
-8.89
-47.43
-85.72
-122.30
-155.39
-183.01
-203.08
-213.75
-213.45
-201.21
-176.98
-142.23
-100.51
-57.51
-20.06
5.73
16.62
13.47
0.79
-15.26
-29.42
-39.19
-44.94
-48.84
-53.12
-59.07
-66.88
-76.15
-86.31
-96.52
-105.37
-110.74
-110.39
-102.94
-88.61
-69.26
-47.54
-25.95
-6.42
9.51
20.37
24.83
22.13
12.55
-2.60
-21.40
-42.01
-63.42
-85.48
-108.38
-131.77
-154.43
-174.72
-191.34
-203.92
-213.22
-221.16
-230.23
-242.71
-259.26
-278.65
-298.56
-316.61
-330.86
-340.17
-344.74
-346.33
-347.69
-350.44
-354.56
-359.12
-363.21
-365.36
-362.95
-352.50
-330.46
-294.31
-241.97
-174.08
-96.66
-21.10
40.50
81.17
101.84
110.48
118.30
137.48
176.36
236.00
310.56
392.52
476.85
560.91
641.44
698.43
705.33
651.05
552.63
441.54
344.11
273.01
227.21
197.70
171.85
145.26
121.19
105.42
100.87
106.43
118.38
131.44
138.34
132.55
114.30
90.63
69.86
55.55
46.31
38.48
28.99
16.94
3.74
-6.66
-10.63
-7.62
-1.16
3.39
1.67
-7.85
-23.61
-41.74
-57.00
-65.24
-65.24
-59.59
-51.25
-42.95
-36.08
-30.79
-26.38
-21.71
-16.14
-9.98
-4.25
0.05
2.39
3.01
2.72
2.49
3.16
4.97
7.57
10.27
12.55
14.11
15.10
15.95
16.68
17.26
17.43
16.86
15.29
12.79
9.66
6.74
4.65
3.21
1.29
-2.77
-10.28
-21.48
-35.29
-49.85
-62.48
-71.29
-75.79
-76.93
-76.10
-74.17
-71.19
-67.11
-62.32
-56.78
-50.84
-45.13
-40.57
-37.61
-35.78
-33.83
-30.53
-24.94
-14.91
1.40
25.03
55.26
90.04
126.97
163.77
198.30
219.60
219.03
195.90
159.47
121.51
89.21
63.88
43.56
24.86
4.98
-14.05
-31.24
-45.02
-54.79
-61.17
-65.50
-68.50
-71.78
-77.45
-86.36
-98.41
-112.47
-126.60
-137.98
-143.07
-137.26
-118.63
-88.64
-50.44
-8.32
34.36
75.67
114.53
150.17
183.14
211.83
233.12
244.75
245.61
237.02
221.88
202.65
170.30
124.08
70.39
18.80
-23.43
-54.20
-77.00
-94.58
-109.82
-126.04
-141.66
-155.89
-167.73
-169.41
-156.02
-128.24
-92.56
-58.07
-31.94
-15.79
-8.47
-8.02
-10.38
-12.29
-10.59
-2.24
14.66
40.44
74.60
114.04
150.08
173.00
176.54
162.05
137.70
114.25
100.63
101.13
113.92
134.54
158.10
180.02
197.33
208.93
214.92
215.06
210.01
199.62
183.39
161.46
134.86
105.56
75.82
47.34
20.83
-3.67
-27.47
-50.60
-70.79
-84.47
-88.92
-84.05
-72.85
-60.84
-54.17
-60.24
-82.62
-119.22
-163.57
-208.20
-247.82
-280.66
-308.47
-334.32
-364.38
-400.42
-438.51
-471.54
-494.07
-504.92
-506.46
-502.60
-495.76
-490.71
-487.71
-482.68
-470.32
-448.25
-417.70
-381.25
-340.52
-263.91
-141.03
12.30
163.36
284.80
364.93
404.72
414.58
405.05
383.37
349.60
305.37
256.14
209.87
173.47
151.81
145.98
152.92
167.85
178.99
177.19
161.50
138.40
115.70
97.99
85.68
76.55
68.53
58.95
49.06
42.99
44.99
55.54
70.60
83.18
86.13
75.40
50.80
18.35
-12.93
-35.02
-44.14
-40.98
-28.91
-12.11
5.27
19.04
27.34
29.24
24.82
15.53
4.92
-1.81
0.25
13.80
38.32
72.44
112.43
153.26
189.64
217.50
234.94
242.00
239.51
218.61
177.27
122.11
67.34
27.25
9.56
13.60
32.06
53.53
67.44
70.42
64.30
54.20
46.23
41.40
38.09
34.17
27.31
16.66
4.89
-5.92
-15.06
-23.26
-27.65
-26.80
-19.69
-7.94
1.30
7.82
11.55
11.92
7.84
-3.04
-23.16
-46.64
-69.24
-87.32
-96.46
-94.55
-81.82
-60.52
-36.12
-13.57
7.00
23.56
32.56
31.85
19.70
-4.21
-38.33
-82.77
-135.63
-187.97
-234.35
-273.14
-302.67
-322.55
-333.59
-337.90
-342.75
-353.90
-367.37
-381.18
-395.74
-409.36
-419.69
-424.68
-397.11
-327.26
-259.81
-209.05
-164.18
-120.85
-75.58
-26.31
27.04
82.91
135.15
180.59
226.83
279.20
337.90
400.55
461.11
510.82
541.01
543.34
516.65
471.95
420.59
369.78
323.35
280.94
239.53
196.23
148.62
98.15
52.10
15.47
-11.32
-30.23
-44.27
-55.69
-64.88
-71.37
-73.89
-70.25
-60.96
-49.05
-37.89
-29.76
-25.27
-23.49
-23.16
-23.21
-22.66
-21.78
-21.65
-23.19
-26.65
-31.41
-36.35
-40.27
-42.46
-42.90
-42.15
-40.99
-39.96
-39.19
-38.46
-37.39
-35.62
-33.03
-29.60
-25.54
-21.23
-17.26
-14.16
-12.30
-11.54
-11.22
-10.41
-8.38
-4.97
-0.79
3.09
5.57
6.00
4.41
1.39
-2.24
-5.71
-8.58
-10.69
-12.12
-13.04
-13.65
-14.14
-14.72
-15.58
-16.81
-18.40
-20.28
-22.37
-24.78
-27.72
-31.40
-35.80
-40.45
-44.43
-46.68
-46.39
-43.47
-38.69
-33.55
-29.68
-28.34
-29.87
-33.77
-39.05
-44.82
-50.93
-57.94
-66.80
-78.24
-92.17
-107.59
-122.82
-136.11
-145.83
-150.87
-150.77
-146.11
-138.76
-132.05
-130.12
-136.51
-152.30
-174.84
-197.80
-213.21
-214.47
-198.90
-168.66
-129.31
-87.56
-48.89
-16.22
10.11
31.12
47.95
61.22
71.33
79.42
87.39
97.54
111.76
131.21
155.59
182.85
209.58
231.68
246.16
251.49
247.76
236.66
221.80
206.35
191.46
176.01
157.38
135.46
112.11
90.46
73.74
66.24
69.65
81.73
97.05
108.62
114.46
115.46
113.57
110.69
111.74
119.98
135.08
153.08
167.09
176.23
181.70
184.45
184.95
188.30
199.40
220.66
250.89
284.77
322.92
365.35
408.55
413.91
354.37
230.58
72.65
-63.97
-173.11
-255.38
-310.23
-337.24
-334.30
-299.21
-237.33
-163.40
-98.69
-65.07
-68.36
-102.48
-154.39
-209.66
-253.58
-278.05
-280.60
-264.76
-241.32
-217.56
-198.33
-185.71
-179.32
-174.30
-164.21
-143.46
-111.68
-72.25
-27.41
18.30
58.64
88.00
104.86
111.66
113.08
113.13
109.00
101.19
89.35
72.29
49.75
24.38
0.71
-17.45
-30.18
-41.25
-54.11
-70.25
-87.62
-101.16
-105.35
-97.70
-78.04
-52.84
-32.63
-24.54
-27.57
-34.72
-38.69
-36.09
-28.19
-19.14
-13.67
-14.21
-19.94
-27.45
-32.60
-33.56
-30.75
-26.18
-22.36
-21.78
-25.44
-32.18
-37.99
-38.02
-27.98
-5.79
27.99
70.92
116.94
159.53
186.54
188.92
166.02
127.47
86.99
54.50
32.67
18.35
6.71
-5.54
-16.20
-23.26
-25.32
-23.59
-21.33
-21.99
-27.43
-36.88
-47.49
-54.75
-55.35
-47.59
-32.50
-13.38
5.44
19.64
25.96
22.86
11.48
-5.13
-22.91
-38.72
-51.37
-61.55
-70.93
-80.93
-91.71
-101.81
-109.18
-112.13
-110.36
-104.83
-96.87
-87.33
-76.28
-63.29
-47.98
-30.68
-12.50
4.81
19.50
30.49
37.67
41.77
43.97
45.41
46.80
48.40
49.96
51.02
51.10
49.85
47.19
43.39
38.95
34.48
30.52
27.35
24.99
23.32
22.19
21.50
21.24
21.34
21.64
21.93
21.97
21.66
21.05
20.21
19.16
17.75
15.72
12.91
9.38
5.44
1.52
-2.01
-5.03
-7.68
-10.19
-12.79
-15.54
-18.44
-21.42
-24.44
-27.37
-29.96
-31.83
-32.61
-32.14
-30.56
-28.23
-25.47
-22.23
-18.00
-12.05
-3.84
6.46
17.89
29.11
39.06
47.71
56.14
66.08
79.16
96.09
116.45
138.90
161.73
183.24
201.84
215.84
223.44
223.03
213.78
196.12
171.75
143.03
111.99
79.75
46.51
12.06
-23.45
-59.04
-92.93
-122.86
-146.83
-163.63
-173.01
-175.49
-172.10
-164.09
-152.83
-139.59
-125.34
-110.91
-97.10
-84.71
-74.35
-66.30
-60.38
-55.99
-52.29
-47.98
-42.24
-35.39
-28.82
-24.13
-22.34
-23.38
-26.23
-29.45
-30.85
-29.29
-25.56
-21.97
-20.85
-23.24
-28.51
-34.78
-39.79
-39.99
-33.19
-19.72
-2.21
16.24
33.55
48.75
61.49
71.63
81.47
93.29
108.24
126.19
146.64
169.41
194.01
219.15
229.80
215.97
179.83
134.77
93.42
60.09
32.04
4.00
-27.91
-64.12
-99.24
-126.91
-143.42
-149.50
-148.84
-145.45
-141.86
-138.59
-136.16
-130.71
-119.96
-104.51
-87.21
-70.88
-56.67
-44.39
-33.61
-24.64
-17.78
-14.23
-14.84
-19.85
-28.63
-39.68
-50.98
-60.09
-64.19
-60.08
-45.04
-19.16
13.75
46.87
72.62
85.23
82.69
67.36
45.13
22.76
5.31
-5.11
-9.18
-9.08
-7.00
-4.17
-1.82
-0.05
1.28
1.88
1.22
-0.90
-3.57
-4.44
-0.30
11.88
33.66
63.60
96.96
127.02
147.27
153.45
144.36
121.17
86.69
44.75
-0.15
-42.67
-76.47
-95.07
-94.20
-74.28
-41.65
-6.13
23.16
41.10
47.94
48.27
48.19
52.00
59.96
67.92
70.20
62.65
43.83
15.14
-19.79
-55.79
-85.45
-98.68
-90.72
-65.92
-33.19
-0.35
27.72
48.04
58.52
57.63
45.76
26.01
4.63
-10.40
-13.74
-3.95
15.84
38.95
56.54
61.75
51.97
31.02
8.17
-5.23
0.16
27.84
73.91
126.00
169.44
189.70
179.06
138.81
77.50
6.80
-63.00
-125.74
-182.36
-235.39
-285.43
-329.47
-363.20
-384.14
-393.43
-394.89
-375.56
-330.88
-266.57
-195.98
-130.30
-74.04
-26.99
11.84
42.77
65.55
77.13
76.10
63.87
44.71
24.22
8.02
1.01
6.27
25.16
53.58
84.90
112.45
131.59
140.38
139.31
130.57
117.79
104.67
92.85
83.63
78.63
79.56
87.32
101.55
117.39
130.64
138.22
137.86
129.56
115.25
97.83
79.87
62.60
45.79
28.83
11.21
-7.33
-25.77
-41.87
-53.05
-57.52
-55.14
-47.30
-36.01
-23.58
-12.55
-4.57
0.07
2.28
3.33
4.07
4.43
3.69
0.70
-5.99
-16.26
-27.76
-36.84
-40.50
-37.95
-30.62
-21.24
-12.89
-9.11
-12.27
-22.73
-39.04
-58.67
-78.39
-94.37
-102.96
-96.13
-71.55
-35.90
-0.43
27.45
47.29
62.26
75.23
86.18
92.48
90.17
77.85
59.25
40.03
26.25
21.82
27.91
43.20
64.97
89.61
113.97
136.01
154.29
167.64
173.22
169.85
158.56
142.21
123.91
106.53
92.41
83.04
78.96
79.41
82.72
86.21
86.75
81.48
69.07
50.40
28.10
5.45
-14.90
-31.41
-43.83
-52.76
-59.17
-63.66
-66.36
-67.06
-65.46
-61.37
-54.56
-44.87
-32.33
-17.33
-0.88
15.34
29.27
39.02
43.58
43.25
39.54
34.61
30.41
28.07
27.55
27.84
27.33
24.40
17.81
7.00
-7.90
-26.11
-46.43
-67.42
-87.51
-105.17
-119.08
-128.19
-131.97
-130.35
-123.71
-112.69
-98.07
-80.65
-61.20
-40.58
-19.74
0.29
18.52
34.23
47.01
56.82
63.84
68.41
70.89
71.63
70.83
68.56
64.64
58.86
51.22
42.09
32.18
22.19
12.42
2.54
-8.19
-20.58
-34.96
-51.07
-68.17
-85.34
-101.72
-116.54
-129.04
-138.39
-143.86
-145.03
-142.11
-135.89
-127.60
-118.53
-109.68
-101.63
-94.53
-88.22
-82.38
-76.61
-70.58
-64.07
-56.99
-49.50
-41.90
-34.62
-28.05
-22.44
-17.84
-14.12
-11.04
-8.47
-6.36
-4.75
-3.73
-3.31
-3.43
-3.96
-4.79
-5.88
-7.21
-8.78
-10.55
-12.36
-13.96
-15.10
-15.62
-15.46
-14.70
-13.47
-11.85
-9.92
-7.69
-5.22
-2.69
-0.39
1.35
2.25
2.26
1.59
0.61
-0.26
-0.76
-0.79
-0.40
0.38
1.55
3.15
5.19
7.56
10.09
12.56
14.75
16.51
17.70
18.19
17.85
16.69
14.83
12.52
10.09
7.81
5.81
4.10
2.51
0.91
-0.91
-2.97
-5.19
-7.39
-9.33
-10.93
-12.29
-13.79
-15.95
-19.14
-23.44
-28.52
-33.84
-38.90
-43.53
-47.84
-52.13
-56.63
-61.31
-65.96
-70.17
-73.50
-75.47
-75.51
-73.07
-67.75
-59.60
-49.23
-37.77
-26.51
-16.45
-8.02
-1.11
4.77
10.11
15.13
19.81
23.95
27.36
29.97
31.78
32.80
32.90
31.95
29.86
26.76
22.94
18.78
14.63
10.71
7.17
4.13
1.82
0.43
-0.00
0.30
0.97
1.47
1.49
0.81
-0.59
-2.70
-5.32
-8.14
-10.59
-12.04
-11.99
-10.24
-7.04
-2.77
2.23
7.91
14.45
21.98
30.40
39.17
47.55
54.90
60.99
65.92
70.03
73.65
76.98
80.34
84.21
89.25
95.75
103.07
109.23
111.11
105.42
89.85
63.97
29.24
-11.73
-56.39
-102.80
-149.57
-194.91
-235.90
-268.35
-287.78
-290.98
-277.25
-248.73
-209.55
-164.38
-117.13
-70.35
-25.61
15.73
51.81
80.16
98.38
105.16
101.23
89.53
74.59
61.34
53.69
53.52
60.31
71.71
84.48
95.60
103.00
105.83
104.14
98.59
90.07
79.40
67.10
53.25
37.56
19.57
-1.01
-23.88
-48.08
-72.04
-94.12
-113.18
-129.01
-142.30
-153.96
-164.33
-172.63
-177.09
-175.72
-167.22
-151.63
-130.28
-105.22
-78.33
-50.74
-22.84
5.35
33.74
61.90
89.38
116.05
142.37
169.14
197.04
226.09
255.47
283.76
309.42
331.32
349.15
363.31
374.70
384.28
392.62
399.56
404.07
404.48
398.96
386.12
365.70
338.73
307.10
272.66
236.23
197.17
153.86
104.93
50.62
-6.51
-61.76
-109.69
-146.07
-169.63
-182.81
-191.19
-201.61
-220.18
-250.48
-292.69
-343.79
-398.04
-448.08
-486.19
-505.78
-503.79
-483.13
-453.55
-429.69
-425.68
-448.98
-496.76
-556.66
-611.71
-647.24
-656.08
-639.63
-604.58
-557.75
-502.36
-438.42
-365.35
-284.41
-199.42
-115.55
-37.11
34.25
99.81
162.67
224.68
284.72
339.06
383.05
413.20
428.54
428.44
412.43
383.69
349.07
315.34
286.02
261.31
239.57
218.73
198.11
177.11
156.33
136.52
117.86
100.18
83.27
67.18
52.27
38.49
26.71
18.30
14.05
13.50
15.14
17.05
17.69
16.41
13.65
10.96
10.46
13.63
20.63
30.34
40.93
50.49
57.44
60.93
60.89
57.93
52.78
46.02
38.02
29.08
19.59
10.05
1.06
-6.70
-12.59
-16.23
-17.64
-17.24
-15.78
-14.12
-12.97
-12.73
-13.34
-14.29
-14.87
-14.43
-12.54
-9.17
-4.70
0.14
4.46
7.41
8.53
7.96
6.46
5.18
5.15
6.89
10.14
14.08
17.65
19.99
20.75
20.02
18.11
15.27
11.60
7.06
1.68
-4.31
-10.43
-16.18
-21.19
-25.43
-29.15
-32.75
-36.51
-40.53
-44.79
-49.25
-53.87
-58.61
-63.26
-67.30
-70.05
-70.83
-69.24
-65.21
-59.00
-50.92
-41.25
-30.21
-18.05
-5.27
7.44
19.25
29.43
37.45
42.94
45.67
45.40
42.05
35.84
27.50
18.20
9.37
2.29
-2.19
-3.77
-2.55
1.16
6.96
14.36
22.73
31.23
39.00
45.60
50.99
55.45
59.46
63.57
68.30
73.89
80.20
86.82
93.34
99.25
103.92
106.54
106.32
102.77
96.17
87.82
80.04
75.96
77.76
85.48
96.80
108.16
116.44
120.16
119.66
116.57
114.06
114.11
116.60
119.78
121.91
122.48
122.00
121.08
120.16
121.99
128.00
137.04
145.47
149.39
146.53
136.44
119.79
98.85
81.30
73.71
78.33
92.14
109.98
127.65
142.86
154.72
164.66
181.05
210.70
254.98
308.98
365.71
419.85
468.14
507.77
496.98
412.14
262.08
85.86
-76.12
-202.10
-288.03
-336.30
-360.82
-370.22
-363.62
-339.91
-301.82
-257.61
-215.63
-181.23
-156.89
-145.04
-147.28
-160.08
-179.02
-200.35
-223.82
-249.39
-275.35
-298.93
-318.38
-332.07
-336.11
-327.80
-307.72
-282.84
-261.87
-251.07
-252.64
-265.78
-287.18
-311.18
-332.51
-332.14
-300.04
-239.49
-164.02
-87.53
-18.69
38.34
81.72
110.52
125.25
127.75
120.84
109.31
98.98
94.15
96.24
104.12
115.58
125.53
128.67
122.68
109.21
92.09
74.79
59.10
45.64
34.76
26.97
22.03
19.59
19.79
22.42
26.38
29.65
30.02
26.04
18.23
7.36
-5.03
-16.62
-25.91
-32.42
-35.97
-35.80
-30.66
-19.63
-3.52
14.86
31.99
43.91
47.39
41.23
26.55
6.37
-15.12
-33.17
-43.07
-39.16
-18.90
15.39
56.75
95.94
124.52
137.44
134.17
112.76
77.79
38.24
3.48
-20.53
-31.61
-29.95
-17.55
1.75
22.97
42.56
58.21
68.51
73.35
73.84
71.29
66.57
59.86
51.35
42.30
33.84
27.50
24.66
26.38
32.96
43.47
55.67
66.41
72.42
70.27
57.29
32.62
-2.20
-43.85
-88.57
-133.08
-175.42
-215.11
-252.81
-288.73
-320.70
-343.43
-349.93
-334.16
-292.72
-225.86
-137.84
-36.46
68.18
165.21
244.48
297.61
319.44
310.21
275.91
226.15
171.00
118.59
74.06
43.68
33.81
44.93
69.20
94.94
112.26
115.93
106.30
88.64
68.17
50.63
39.72
36.85
41.54
51.54
63.40
73.42
78.39
80.86
81.18
79.31
75.28
69.40
61.95
53.05
42.86
31.33
17.65
-2.02
-31.43
-71.39
-117.71
-161.48
-191.57
-198.44
-177.84
-133.45
-78.95
-30.18
1.15
11.00
2.01
-19.72
-47.89
-77.95
-108.32
-143.35
-185.52
-232.75
-279.25
-319.41
-350.62
-373.18
-388.53
-398.86
-410.85
-427.49
-446.71
-463.04
-472.02
-472.52
-465.34
-450.13
-391.77
-275.09
-113.90
55.72
201.35
308.19
376.63
415.35
440.25
460.41
472.87
473.10
459.08
433.96
403.63
373.74
342.42
309.28
272.41
226.61
172.10
114.89
65.47
32.88
19.90
22.57
33.77
45.35
49.12
47.26
43.60
41.15
39.11
34.65
26.55
17.67
12.42
9.09
8.53
8.90
7.46
1.66
-9.45
-25.12
-43.51
-58.18
-66.69
-67.77
-62.57
-52.73
-39.69
-24.40
-7.67
9.65
26.26
40.14
50.58
57.16
60.43
61.55
61.93
62.55
63.99
66.42
69.14
71.81
73.56
73.35
70.15
63.17
52.21
37.92
21.98
6.35
-6.57
-15.12
-18.78
-18.38
-15.84
-13.59
-13.66
-17.02
-23.50
-31.83
-40.63
-49.00
-56.84
-64.50
-72.28
-80.01
-87.14
-93.32
-98.81
-104.72
-112.54
-123.31
-136.92
-151.97
-166.35
-178.42
-187.86
-196.06
-205.58
-219.13
-238.24
-262.55
-289.77
-316.31
-338.51
-353.69
-360.82
-360.52
-354.49
-344.68
-332.65
-319.38
-305.42
-291.35
-277.90
-265.71
-254.66
-243.48
-229.79
-210.96
-185.32
-153.19
-117.06
-80.69
-47.73
-20.27
1.69
19.83
36.36
52.87
69.74
86.47
102.64
118.70
135.86
155.17
176.03
195.57
209.16
212.10
201.48
177.26
141.85
98.86
51.82
3.90
-41.70
-81.11
-109.90
-124.24
-122.36
-105.34
-76.64
-40.41
0.48
45.43
95.50
151.42
211.42
270.30
320.37
354.23
367.69
361.61
341.59
315.63
291.13
272.53
260.62
253.42
247.93
241.75
233.71
223.70
212.08
199.27
185.47
170.92
156.04
141.62
128.91
119.19
113.30
111.09
111.25
111.73
110.44
106.16
98.89
89.78
80.34
71.70
64.12
57.00
49.41
40.71
30.96
20.91
11.65
4.08
-1.47
-5.29
-8.04
-10.47
-13.03
-15.79
-18.47
-20.56
-21.55
-21.02
-18.71
-14.57
-8.76
-1.68
6.10
13.95
21.31
27.86
33.60
38.77
43.75
48.77
53.85
58.64
62.62
65.24
66.15
65.30
62.84
59.13
54.43
48.93
42.69
35.75
28.28
20.59
13.17
6.50
0.88
-3.66
-7.39
-10.75
-14.17
-17.91
-21.92
-25.82
-29.11
-31.33
-32.22
-31.90
-30.66
-28.90
-26.97
-25.13
-23.55
-22.44
-22.05
-22.55
-24.01
-26.29
-29.10
-32.08
-34.86
-37.12
-38.50
-38.75
-37.78
-35.77
-33.17
-30.67
-28.84
-28.00
-28.14
-29.00
-30.26
-31.70
-33.19
-34.67
-36.11
-37.44
-38.73
-40.14
-41.89
-44.02
-46.26
-47.92
-48.09
-45.96
-41.14
-33.82
-24.67
-14.66
-4.74
4.29
11.91
17.77
21.75
23.94
24.58
24.05
22.84
21.37
19.99
18.98
18.43
18.35
18.52
18.55
17.96
16.35
13.55
9.80
5.65
1.73
-1.50
-3.92
-5.78
-7.58
-9.82
-12.88
-16.89
-21.66
-26.68
-31.23
-34.42
-35.39
-33.48
-28.46
-20.68
-10.97
-0.50
9.49
18.06
24.70
29.35
32.20
33.55
33.71
32.88
31.37
29.55
27.90
26.96
26.96
27.64
28.35
28.37
27.24
24.89
21.50
17.45
13.17
8.92
4.60
-0.04
-5.28
-11.25
-17.93
-25.20
-32.85
-40.08
-46.02
-49.93
-51.30
-49.94
-45.99
-40.06
-33.16
-26.37
-19.34
-11.72
-3.65
4.17
11.09
16.87
21.68
25.86
29.77
36.12
46.52
60.38
75.29
88.71
99.13
106.20
110.29
112.12
116.40
126.25
141.42
158.79
174.78
187.33
195.92
200.91
202.91
207.46
217.98
233.68
250.72
265.67
277.78
288.54
299.92
281.42
218.48
119.47
10.31
-85.52
-158.49
-210.27
-247.47
-277.05
-303.65
-323.55
-331.72
-327.72
-314.58
-296.85
-278.43
-261.91
-248.53
-238.35
-226.77
-210.51
-189.82
-168.09
-149.20
-135.30
-126.51
-121.72
-119.43
-115.92
-108.89
-98.71
-87.67
-78.33
-72.19
-69.47
-69.45
-70.86
-71.09
-68.12
-61.33
-51.41
-39.67
-27.37
-15.47
-4.67
4.58
12.49
19.35
25.19
29.91
33.39
35.71
37.08
37.78
38.08
38.23
38.37
38.50
38.58
38.49
38.10
37.38
36.36
35.19
34.07
33.21
32.75
32.67
32.72
32.51
31.58
29.64
26.69
22.97
18.82
14.49
10.00
5.30
0.46
-4.13
-7.70
-9.38
-8.56
-5.23
-0.05
5.85
11.32
15.49
18.03
19.01
18.77
17.70
16.12
14.33
12.59
11.14
10.11
9.45
8.96
8.37
7.47
6.21
4.67
2.98
1.25
-0.57
-2.65
-5.22
-8.46
-12.36
-16.79
-21.47
-26.14
-30.59
-34.84
-39.01
-43.31
-47.91
-52.83
-57.82
-62.33
-65.58
-66.70
-65.04
-60.33
-52.90
-43.55
-33.38
-23.43
-14.47
-6.93
-0.96
3.44
6.39
8.15
9.14
9.78
10.43
11.30
12.37
13.48
14.39
14.92
15.11
15.06
14.82
14.35
13.49
12.12
10.19
7.75
4.91
2.04
-0.56
-2.70
-4.39
-5.86
-7.37
-9.18
-11.46
-14.14
-16.44
-17.36
-16.18
-12.78
-7.54
-1.14
5.68
12.17
17.71
22.90
28.42
34.44
40.26
44.80
47.25
47.32
45.21
41.46
38.47
38.38
42.02
48.43
55.65
61.98
66.49
69.05
70.18
72.95
80.31
93.84
113.08
136.50
162.56
190.02
217.41
230.41
217.98
177.72
118.69
54.76
-2.99
-48.40
-79.23
-95.75
-101.87
-99.23
-89.74
-76.53
-63.98
-56.36
-56.34
-64.31
-78.58
-95.84
-110.32
-117.04
-113.70
-101.67
-84.99
-68.43
-55.77
-48.84
-47.42
-48.78
-50.10
-49.76
-47.92
-45.81
-44.62
-44.91
-46.48
-48.66
-50.14
-50.06
-48.35
-45.73
-43.30
-42.08
-42.64
-44.78
-47.59
-49.48
-49.02
-45.30
-38.14
-28.06
-16.22
-4.22
6.58
15.21
20.99
23.16
21.04
14.41
4.01
-8.58
-20.97
-30.14
-33.17
-28.26
-15.39
4.04
28.11
55.16
83.68
110.55
130.34
138.00
132.23
115.58
92.31
66.45
41.15
18.27
-2.76
-21.83
-37.94
-49.95
-57.49
-61.50
-64.01
-65.40
-66.88
-69.30
-72.27
-74.51
-74.55
-71.60
-65.86
-58.33
-50.32
-43.70
-40.20
-40.68
-44.90
-51.45
-58.24
-63.29
-65.41
-64.17
-60.60
-56.44
-53.08
-50.97
-49.35
-46.98
-42.98
-37.32
-29.83
-21.06
-12.01
-4.00
1.65
4.15
3.37
-0.00
-4.55
-6.68
-2.99
8.44
27.26
51.33
77.62
103.14
125.31
142.40
155.76
167.50
179.40
192.17
206.00
221.40
239.24
260.21
271.16
261.64
227.72
174.54
111.77
48.42
-8.86
-55.53
-89.23
-109.99
-117.96
-114.79
-103.48
-87.85
-71.43
-56.46
-44.24
-35.69
-31.98
-32.66
-37.02
-44.03
-52.20
-59.39
-63.10
-61.66
-55.38
-46.69
-37.98
-31.06
-26.36
-22.97
-19.44
-14.64
-8.57
-2.50
1.63
3.06
2.52
1.83
2.81
6.16
11.10
15.65
17.56
15.18
8.64
-0.39
-9.45
-16.42
-20.28
-21.26
-20.54
-19.62
-19.87
-21.74
-24.75
-27.89
-30.14
-31.01
-30.68
-30.07
-28.62
-26.92
-25.69
-25.60
-27.18
-30.67
-35.91
-42.24
-48.51
-53.24
-55.20
-53.42
-47.58
-38.15
-26.33
-13.71
-1.79
8.36
16.30
21.96
25.71
28.06
29.46
30.25
30.72
31.18
32.01
33.55
35.86
38.76
41.74
44.18
45.54
45.57
44.41
42.50
40.26
37.86
35.21
32.02
28.00
22.96
16.85
9.77
2.00
-5.96
-13.31
-19.01
-22.02
-21.69
-18.03
-11.80
-4.17
3.62
10.72
16.70
21.46
24.99
27.20
28.02
27.47
25.81
23.57
21.39
19.83
19.17
19.37
20.12
21.03
21.76
22.15
22.24
22.24
22.38
22.81
23.50
24.27
24.77
24.65
23.59
21.35
17.75
12.76
6.58
-0.25
-6.80
-12.00
-14.87
-14.94
-12.35
-7.85
-2.47
2.81
7.32
10.72
12.92
13.94
13.86
12.81
11.05
8.94
6.80
4.84
3.10
1.50
-0.09
-1.75
-3.46
-5.16
-6.83
-8.53
-10.40
-12.61
-15.29
-18.41
-21.82
-25.19
-28.21
-30.61
-32.31
-33.45
-34.40
-35.63
-37.59
-40.48
-44.03
-47.49
-49.69
-49.42
-45.80
-38.65
-28.66
-17.17
-5.73
4.41
12.60
18.84
23.49
26.96
29.44
30.93
31.38
30.88
29.72
28.30
26.94
25.72
24.49
22.98
21.03
18.69
16.16
13.70
11.42
9.22
6.86
4.09
0.86
-2.69
-6.30
-9.72
-12.88
-15.92
-19.06
-22.52
-26.38
-30.36
-33.88
-36.11
-36.18
-33.43
-27.72
-19.49
-9.74
0.27
9.35
16.61
21.69
24.58
25.61
25.18
23.74
21.71
19.48
17.39
15.68
14.53
13.98
13.92
14.14
14.32
14.18
13.45
12.06
10.05
7.60
4.98
2.35
-0.26
-3.00
-6.14
-9.89
-14.24
-19.07
-24.17
-29.46
-34.98
-40.76
-46.62
-51.94
-55.74
-56.96
-54.91
-49.65
-41.97
-33.19
-24.59
-17.16
-11.30
-6.99
-3.89
-1.63
0.17
1.79
3.42
5.17
7.05
8.94
10.60
11.69
11.91
11.13
9.46
7.29
5.12
3.39
2.26
1.54
0.83
-0.27
-1.94
-4.05
-6.28
-8.31
-10.01
-11.54
-13.28
-15.71
-19.14
-23.59
-28.60
-33.34
-36.75
-37.84
-36.04
-31.32
-24.28
-15.89
-7.23
0.82
7.71
13.20
17.31
20.10
21.69
22.23
21.98
21.32
20.75
20.66
21.26
22.43
23.76
24.70
24.76
23.78
21.89
19.44
16.78
14.10
11.41
8.57
5.53
2.40
-0.58
-3.15
-5.18
-6.75
-8.10
-9.50
-11.25
-13.55
-16.63
-20.63
-25.55
-31.07
-36.44
-40.56
-42.28
-40.80
-35.99
-28.47
-19.45
-10.30
-2.18
4.23
8.75
11.54
12.91
13.23
12.83
12.05
11.26
10.80
10.85
11.32
11.93
12.31
12.17
11.49
10.48
9.48
8.75
8.30
7.88
7.14
5.78
3.72
1.15
-1.65
-4.38
-6.86
-8.99
-10.79
-12.35
-13.88
-15.76
-18.44
-22.34
-27.52
-33.51
-39.24
-43.33
-44.49
-42.04
-36.16
-27.84
-18.46
-9.35
-1.40
5.02
9.94
13.50
15.82
16.92
16.88
15.89
14.31
12.65
11.31
10.54
10.33
10.46
10.65
10.66
10.37
9.81
9.11
8.40
7.74
7.07
6.12
4.62
2.33
-0.77
-4.43
-8.15
-11.45
-14.02
-15.89
-17.45
-19.28
-21.99
-25.90
-30.94
-36.59
-41.96
-45.93
-47.41
-45.59
-40.23
-31.79
-21.35
-10.36
-0.20
8.10
14.11
17.85
19.61
19.74
18.60
16.65
14.46
12.62
11.62
11.57
12.18
12.87
13.03
12.35
10.96
9.35
8.07
7.44
7.35
7.24
6.47
4.56
1.49
-2.34
-6.35
-10.04
-13.28
-16.25
-19.30
-22.84
-27.14
-32.31
-38.18
-44.25
-49.55
-52.82
-52.78
-48.65
-40.59
-29.69
-17.68
-6.30
3.19
10.27
14.99
17.67
18.69
18.39
17.19
15.61
14.20
13.45
13.56
14.44
15.72
16.99
17.83
18.00
17.37
15.97
13.95
11.47
8.68
5.68
2.51
-0.78
-4.07
-7.15
-9.82
-11.97
-13.79
-15.69
-18.22
-21.89
-26.85
-32.80
-38.92
-43.98
-46.66
-45.84
-41.06
-32.65
-21.70
-9.80
1.43
10.82
17.79
22.34
24.84
25.80
25.69
24.90
23.74
22.49
21.35
20.48
19.86
19.37
18.85
18.17
17.29
16.26
15.12
13.82
12.24
10.19
7.60
4.55
1.20
-2.29
-5.85
-9.54
-13.38
-17.38
-21.44
-25.56
-29.84
-34.45
-39.36
-44.02
-47.37
-48.07
-45.07
-38.09
-27.81
-15.66
-3.31
7.84
16.93
23.65
28.03
30.29
30.69
29.64
27.69
25.54
23.81
22.89
22.79
23.15
23.50
23.46
22.92
22.06
21.17
20.39
19.57
18.32
16.21
13.03
8.91
4.33
-0.12
-3.97
-7.11
-9.74
-12.27
-15.23
-19.04
-24.00
-30.09
-36.90
-43.48
-48.46
-50.38
-48.10
-41.43
-31.14
-18.83
-6.29
5.03
14.39
21.62
26.86
30.25
31.83
31.74
30.42
28.60
27.19
26.83
27.65
29.24
30.84
31.71
31.52
30.35
28.59
26.65
24.70
22.58
19.90
16.34
11.84
6.69
1.41
-3.47
-7.63
-11.07
-14.03
-16.92
-20.13
-24.03
-28.86
-34.68
-41.22
-47.68
-52.78
-54.95
-52.91
-46.11
-35.11
-21.39
-6.91
6.54
17.77
26.34
32.39
36.29
38.36
38.85
38.05
36.41
34.59
33.29
33.04
33.95
35.65
37.42
38.44
38.15
36.43
33.66
30.43
27.38
24.80
22.69
20.67
18.40
15.62
12.41
9.02
5.75
2.77
-0.08
-3.11
-6.70
-11.07
-16.18
-21.85
-27.95
-34.47
-41.46
-48.72
-55.49
-60.41
-61.79
-58.30
-49.59
-36.57
-21.23
-5.92
7.36
17.57
24.68
29.33
32.32
34.18
35.14
35.24
34.64
33.75
33.20
33.55
34.97
37.15
39.37
40.82
40.90
39.57
37.23
34.60
32.35
30.83
29.99
29.48
28.84
27.70
25.87
23.36
20.36
17.08
13.74
10.50
7.41
4.48
1.50
-1.97
-6.47
-12.44
-19.89
-28.17
-35.75
-40.44
-40.11
-33.63
-21.62
-6.30
9.29
22.44
31.66
37.16
40.60
44.05
48.63
54.06
58.98
61.83
61.76
58.98
54.91
51.91
52.25
56.70
64.04
71.56
75.97
74.55
65.62
49.09
26.67
1.36
-23.67
-45.63
-62.46
-73.25
-77.49
-77.08
-78.46
-88.43
-108.13
-132.04
-151.36
-158.57
-150.79
-130.77
-105.35
-81.70
-63.86
-51.81
-43.32
-36.25
-30.09
-26.00
-25.44
-28.88
-34.62
-39.07
-38.35
-30.53
-15.97
2.73
22.17
39.12
50.94
56.04
54.21
46.75
35.97
24.63
15.33
9.52
7.07
6.24
5.00
1.83
-3.68
-11.09
-19.47
-27.67
-34.59
-39.23
-40.51
-36.44
-26.97
-12.94
3.16
18.21
29.68
36.43
39.04
39.91
43.56
54.32
74.08
100.62
128.13
148.73
154.78
141.56
110.01
68.70
30.50
7.48
6.20
26.18
61.03
101.07
136.64
151.78
136.71
94.94
41.26
-9.65
-50.42
-80.16
-100.66
-114.83
-122.77
-122.70
-114.06
-99.39
-83.85
-72.52
-68.48
-72.00
-81.13
-91.79
-99.57
-101.98
-99.40
-94.08
-88.20
-82.70
-77.39
-71.76
-63.85
-52.26
-37.25
-20.46
-3.42
13.77
32.38
54.17
80.27
112.59
151.11
193.06
233.60
267.70
291.54
303.15
302.87
281.38
239.69
189.60
146.51
118.58
103.91
95.58
87.64
78.32
69.56
66.44
71.71
83.82
98.24
111.35
122.10
131.57
141.57
153.24
167.62
183.43
197.00
203.75
200.04
185.34
161.20
130.49
96.28
61.76
28.40
-4.30
-37.91
-73.56
-111.17
-149.59
-186.94
-221.03
-249.16
-269.09
-279.66
-281.04
-274.51
-261.88
-244.76
-223.59
-197.39
-164.11
-122.06
-71.24
-13.87
45.82
102.52
150.77
185.82
204.58
206.27
192.98
169.50
142.24
117.49
99.67
90.36
88.63
92.28
99.24
108.21
118.45
129.16
138.96
146.05
148.75
146.18
138.67
127.56
114.76
102.06
90.73
81.07
72.42
63.25
51.73
36.31
16.36
-7.59
-34.12
-61.60
-88.92
-115.79
-142.62
-169.90
-197.58
-224.79
-250.00
-271.64
-288.60
-300.70
-308.66
-313.87
-317.96
-322.45
-328.17
-334.68
-339.87
-340.07
-330.86
-308.38
-270.79
-219.11
-157.01
-89.73
-22.82
39.08
92.85
137.16
172.30
199.66
220.98
237.52
249.34
255.22
253.19
241.48
219.37
187.47
147.51
101.67
52.36
2.10
-46.54
-91.01
-129.36
-160.89
-186.50
-208.40
-229.47
-252.53
-279.68
-311.77
-347.76
-384.54
-417.10
-439.77
-447.93
-439.76
-416.93
-383.92
-346.19
-308.14
-271.95
-237.75
-204.78
-172.65
-141.86
-113.37
-87.59
-63.81
-40.38
-15.72
10.53
36.97
60.75
78.80
89.27
92.48
90.98
88.65
89.23
95.08
106.49
121.98
139.10
155.37
168.94
178.81
184.60
186.41
184.64
179.93
173.15
165.31
157.36
149.95
143.27
137.07
130.77
123.74
115.58
106.20
95.86
85.01
73.89
62.20
49.00
32.98
13.08
-10.79
-37.37
-64.03
-87.32
-103.83
-111.00
-107.92
-95.52
-76.45
-54.29
-32.51
-13.46
2.14
15.12
27.08
39.60
53.64
69.51
87.08
105.89
125.09
142.99
157.06
164.45
163.03
152.47
134.51
112.53
90.18
70.23
53.76
40.38
28.99
18.56
8.65
-0.60
-8.89
-16.10
-22.41
-28.28
-33.99
-39.58
-44.79
-49.21
-52.60
-54.94
-56.50
-57.53
-58.18
-58.35
-57.77
-56.19
-53.55
-49.98
-45.82
-41.49
-37.36
-33.68
-30.55
-27.86
-25.44
-23.04
-20.54
-17.92
-15.31
-12.85
-10.58
-8.41
-6.11
-3.51
-0.59
2.42
5.14
7.21
8.47
9.01
9.15
9.15
9.21
9.28
9.26
9.06
8.66
8.16
7.59
6.87
5.84
4.32
2.22
-0.51
-3.87
-7.92
-12.77
-18.49
-25.01
-32.10
-39.32
-46.19
-52.30
-57.31
-60.98
-63.11
-63.60
-62.52
-60.21
-57.20
-54.14
-51.56
-49.75
-48.67
-48.12
-47.81
-47.48
-46.77
-45.28
-42.59
-38.46
-33.01
-26.84
-20.74
-15.39
-10.93
-6.81
-1.85
5.31
15.73
29.74
46.76
65.45
83.99
100.54
113.59
122.27
126.49
126.90
124.68
121.11
117.09
112.73
107.39
99.97
89.62
75.85
59.30
41.56
24.42
8.94
-4.69
-16.58
-26.55
-34.04
-38.85
-41.26
-41.89
-41.52
-40.44
-37.80
-31.61
-19.68
-0.89
22.76
47.88
71.35
91.29
106.83
117.77
124.06
125.57
122.30
112.05
95.16
75.83
59.67
49.81
45.23
41.94
35.33
22.35
-3.46
-43.01
-90.01
-134.75
-170.85
-197.15
-216.40
-232.85
-250.65
-282.64
-335.37
-403.97
-475.75
-539.56
-589.55
-625.16
-649.62
-668.57
-701.13
-759.00
-838.17
-922.14
-993.39
-1038.71
-1050.59
-1027.03
-889.67
-619.75
-275.33
49.15
293.71
449.61
535.99
578.76
597.86
601.43
580.67
533.12
470.05
411.56
365.64
334.88
315.97
303.51
293.30
274.08
241.66
202.43
168.74
148.91
144.79
152.84
167.69
184.88
195.88
196.87
190.88
185.28
185.24
192.33
204.94
220.54
237.32
251.98
263.85
275.94
293.95
321.21
356.93
396.06
431.97
459.08
474.08
477.83
474.81
472.41
474.77
480.53
483.72
477.77
458.49
425.08
378.83
321.47
257.58
190.55
122.49
55.39
-6.90
-59.50
-98.43
-122.89
-134.88
-133.31
-117.89
-90.13
-54.15
-14.71
23.01
55.42
80.02
69.75
14.47
-72.00
-160.86
-231.59
-279.20
-309.87
-329.95
-343.88
-353.23
-353.72
-342.18
-317.58
-284.76
-250.00
-221.10
-200.50
-187.86
-180.38
-171.02
-153.60
-122.81
-77.65
-18.33
45.44
107.14
159.42
195.31
211.82
194.78
144.57
77.40
32.47
17.52
29.39
55.04
84.12
109.69
128.49
142.43
141.23
120.66
81.48
33.40
-13.72
-53.14
-81.51
-98.11
-102.92
-97.51
-85.87
-74.95
-67.88
-65.02
-64.43
-63.55
-60.21
-52.22
-41.25
-28.90
-18.74
-15.13
-19.40
-29.95
-43.97
-58.85
-72.10
-81.83
-86.19
-85.85
-82.40
-78.95
-79.09
-85.05
-95.59
-107.30
-115.29
-114.94
-104.52
-84.45
-57.67
-28.58
-1.45
20.72
36.99
48.43
57.68
61.98
61.56
57.31
50.23
41.15
30.88
20.83
12.34
6.20
1.69
-0.76
-1.04
0.76
4.16
8.47
14.03
20.89
28.09
32.63
33.80
31.80
27.75
22.83
18.32
17.11
21.14
29.96
39.10
46.28
50.21
50.90
48.74
44.95
43.86
49.62
64.19
84.50
109.28
136.95
165.56
191.85
197.51
172.38
120.58
72.26
35.11
10.40
-7.21
-19.24
-27.25
-33.00
-36.08
-36.95
-37.85
-44.15
-56.22
-70.68
-81.67
-84.56
-77.67
-61.41
-39.87
-19.67
-8.97
-10.15
-20.85
-35.70
-49.73
-59.73
-63.50
-60.86
-53.47
-45.01
-37.39
-31.37
-26.91
-24.12
-23.04
-22.86
-22.31
-20.00
-15.15
-6.58
6.23
22.58
40.29
56.49
68.82
76.10
78.49
76.99
73.39
69.35
65.86
63.05
60.50
57.61
54.02
49.68
44.78
39.49
33.87
27.81
21.15
13.83
6.03
-1.86
-9.44
-16.42
-22.82
-28.90
-34.95
-41.11
-47.14
-52.52
-56.65
-59.17
-60.08
-59.83
-59.15
-58.73
-59.09
-60.34
-62.22
-64.06
-65.00
-64.09
-60.63
-54.32
-45.40
-34.63
-23.05
-11.79
-1.77
6.38
12.36
16.16
17.94
18.04
16.85
14.77
12.16
9.30
6.44
3.70
1.19
-1.01
-2.88
-4.45
-5.77
-6.98
-8.26
-9.81
-11.81
-14.34
-17.35
-20.62
-23.80
-26.54
-28.62
-29.99
-30.85
-31.65
-32.90
-35.13
-38.58
-43.01
-47.63
-51.12
-52.03
-49.22
-42.28
-31.73
-18.89
-5.37
7.42
18.61
27.93
35.45
41.32
45.58
48.20
49.25
48.94
47.68
45.90
43.89
41.70
39.20
36.24
32.74
28.67
24.06
18.85
12.87
6.02
-1.65
-9.83
-17.98
-25.58
-32.23
-37.82
-42.45
-46.36
-49.77
-52.96
-56.19
-59.64
-63.22
-66.39
-68.11
-67.12
-62.39
-53.57
-41.26
-26.80
-11.82
2.22
14.42
24.42
32.22
37.90
41.58
43.35
43.42
42.19
40.18
37.90
35.71
33.71
31.75
29.59
27.05
24.12
20.95
17.79
14.82
12.07
9.35
6.38
2.88
-1.27
-5.95
-10.82
-15.43
-19.39
-22.54
-25.03
-27.32
-30.00
-33.63
-38.56
-44.66
-51.30
-57.27
-61.07
-61.21
-56.78
-47.78
-35.20
-20.71
-6.15
7.06
18.15
27.03
33.91
39.10
42.75
44.95
45.84
45.73
45.02
44.13
43.32
42.67
42.07
41.38
40.53
39.49
38.27
36.82
35.03
32.78
29.97
26.67
23.04
19.28
15.48
11.64
7.63
3.33
-1.24
-5.96
-10.60
-14.99
-19.04
-22.81
-26.42
-30.08
-34.09
-38.75
-44.28
-50.59
-57.05
-62.45
-65.25
-64.01
-57.99
-47.45
-33.64
-18.41
-3.60
9.42
19.98
28.01
33.80
37.67
39.91
40.73
40.32
39.03
37.25
35.43
33.94
32.90
32.24
31.70
30.95
29.75
28.04
25.91
23.53
21.02
18.35
15.41
12.08
8.30
4.11
-0.37
-5.02
-9.73
-14.40
-18.95
-23.30
-27.42
-31.29
-35.02
-38.78
-42.85
-47.52
-52.93
-58.87
-64.59
-68.85
-70.13
-67.13
-59.28
-47.01
-31.75
-15.38
0.26
13.90
25.00
33.57
39.91
44.32
47.09
48.48
48.90
48.94
49.32
50.63
53.17
56.78
60.95
64.99
68.35
70.78
72.37
73.39
74.03
74.28
73.89
72.54
70.10
66.65
62.59
58.34
54.07
49.59
44.37
37.79
29.43
19.34
7.96
-4.02
-15.99
-27.64
-39.03
-50.48
-62.38
-74.91
-87.87
-100.54
-111.68
-119.83
-123.56
-122.04
-115.40
-104.76
-91.96
-78.88
-66.90
-56.49
-47.31
-38.62
-29.68
-20.15
-10.04
0.47
11.22
22.17
33.35
44.61
55.61
65.84
74.82
82.26
88.17
92.71
96.07
98.30
99.21
98.43
95.56
90.30
82.63
72.86
61.59
49.55
37.48
25.94
15.28
5.57
-3.31
-11.60
-19.56
-27.29
-34.77
-41.79
-48.13
-53.63
-58.42
-62.87
-67.59
-73.14
-79.85
-87.57
-95.58
-102.67
-107.43
-108.55
-105.19
-97.22
-85.31
-70.66
-54.73
-38.89
-24.13
-11.01
0.22
9.56
17.15
23.15
27.78
31.35
34.14
36.39
38.29
39.92
41.24
42.22
42.75
42.74
42.11
40.83
38.97
36.60
33.85
30.79
27.48
23.94
20.23
16.41
12.58
8.82
5.13
1.45
-2.24
-5.91
-9.41
-12.55
-15.23
-17.56
-19.88
-22.70
-26.48
-31.43
-37.30
-43.30
-48.18
-50.50
-49.03
-43.23
-33.39
-20.67
-6.75
6.65
18.19
27.18
33.59
37.77
40.22
41.36
41.44
40.66
39.22
37.42
35.58
33.90
32.35
30.70
28.55
25.58
21.69
17.06
12.10
7.25
2.83
-1.05
-4.47
-7.51
-10.24
-12.66
-14.80
-16.76
-18.76
-21.03
-23.62
-26.41
-29.08
-31.30
-32.93
-34.07
-35.11
-36.63
-39.16
-43.03
-48.14
-53.80
-58.75
-61.36
-60.13
-54.21
-43.81
-30.17
-15.27
-1.08
10.97
20.28
27.01
31.68
34.79
36.69
37.56
37.62
37.21
36.74
36.55
36.69
36.95
36.99
36.58
35.74
34.73
33.86
33.27
32.77
31.94
30.28
27.51
23.71
19.38
15.12
11.43
8.50
6.04
3.53
0.46
-3.43
-8.03
-12.93
-17.62
-21.74
-25.25
-28.43
-31.73
-35.69
-40.65
-46.74
-53.66
-60.64
-66.42
-69.49
-68.46
-62.51
-51.81
-37.53
-21.57
-5.99
7.65
18.60
26.89
33.00
37.50
40.70
42.78
43.84
44.11
43.99
43.86
43.96
44.27
44.49
44.31
43.51
42.10
40.25
38.18
36.02
33.70
31.04
27.81
23.98
19.67
15.23
10.99
7.13
3.54
-0.09
-4.12
-8.74
-13.88
-19.24
-24.48
-29.36
-33.87
-38.20
-42.69
-47.68
-53.42
-59.90
-66.65
-72.74
-76.77
-77.23
-72.92
-63.47
-49.53
-32.70
-15.06
1.42
15.36
26.14
33.79
38.73
41.47
42.50
42.27
41.28
40.08
39.31
39.58
41.34
44.81
49.94
56.47
64.04
72.19
80.43
88.20
94.81
99.52
101.62
100.63
96.51
89.65
80.83
70.92
60.70
50.59
40.61
30.50
19.93
8.64
-3.34
-15.73
-28.08
-39.97
-51.12
-61.50
-71.27
-80.76
-90.21
-99.65
-108.66
-116.34
-121.42
-122.64
-119.18
-111.04
-99.16
-85.09
-70.56
-56.84
-44.53
-33.68
-24.04
-15.49
-8.12
-2.18
2.18
5.12
7.12
8.79
10.62
12.75
14.97
16.90
18.23
18.92
19.18
19.33
19.57
19.84
19.84
19.21
17.80
15.77
13.55
11.65
10.34
9.46
8.50
6.92
4.29
0.65
-3.57
-7.75
-11.34
-14.09
-16.13
-17.91
-20.02
-22.97
-27.15
-32.60
-39.00
-45.62
-51.32
-54.78
-54.81
-50.72
-42.64
-31.52
-18.91
-6.52
4.25
12.65
18.53
22.23
24.26
25.08
25.08
24.60
23.94
23.47
23.42
23.84
24.58
25.34
25.85
25.98
25.82
25.57
25.38
25.16
24.67
23.57
21.60
18.75
15.31
11.69
8.33
5.50
3.21
1.27
-0.67
-2.92
-5.66
-8.83
-12.20
-15.47
-18.35
-20.75
-22.82
-24.93
-27.52
-31.03
-35.61
-40.97
-46.29
-50.24
-51.34
-48.47
-41.30
-30.55
-17.74
-4.78
6.77
16.02
22.80
27.45
30.44
32.11
32.67
32.37
31.60
30.84
30.53
30.87
31.76
32.86
33.77
34.24
34.19
33.74
33.03
32.16
31.08
29.69
27.87
25.65
23.23
21.02
19.49
18.93
19.25
19.87
19.88
18.29
14.45
8.27
0.21
-8.89
-18.16
-26.85
-34.43
-40.59
-45.16
-48.21
-49.99
-50.85
-51.01
-50.32
-48.28
-44.20
-37.58
-28.49
-17.62
-6.07
4.99
14.71
22.69
28.87
33.34
36.22
37.63
37.77
37.04
35.93
34.98
34.56
34.69
35.13
35.39
35.04
33.81
31.66
28.77
25.34
21.48
17.09
11.99
6.00
-0.87
-8.32
-15.84
-22.83
-28.78
-33.43
-36.77
-38.99
-40.31
-40.91
-40.79
-39.82
-37.83
-34.67
-30.39
-25.29
-19.91
-14.95
-11.13
-8.96
-8.51
-9.28
-10.18
-9.81
-6.81
-0.43
9.21
21.02
33.27
44.08
52.02
56.36
57.12
54.80
50.00
43.23
34.91
25.40
15.19
4.91
-4.80
-13.39
-20.58
-26.32
-30.73
-33.95
-36.06
-37.15
-37.26
-36.54
-35.25
-33.70
-32.26
-31.19
-30.58
-30.35
-30.28
-30.17
-29.93
-29.68
-29.67
-30.13
-31.13
-32.53
-34.00
-35.20
-36.03
-36.69
-37.67
-39.51
-42.52
-46.52
-50.73
-53.92
-54.72
-52.01
-45.32
-35.00
-22.10
-8.09
5.59
17.85
28.15
36.42
42.82
47.56
50.77
52.54
53.00
52.43
51.19
49.62
47.91
46.04
43.87
41.18
37.86
33.93
29.50
24.78
19.95
15.20
10.67
6.44
2.58
-0.86
-3.80
-6.12
-7.63
-8.20
-7.83
-6.72
-5.25
-3.90
-3.09
-3.19
-4.46
-7.09
-11.22
-16.81
-23.50
-30.46
-36.40
-39.89
-39.72
-35.40
-27.35
-16.81
-5.43
5.20
14.00
20.53
24.90
27.50
28.78
29.10
28.72
27.89
26.91
26.03
25.47
25.33
25.50
25.78
25.95
25.80
25.29
24.43
23.34
22.10
20.73
19.16
17.31
15.17
12.80
10.30
7.76
5.16
2.33
-0.91
-4.62
-8.72
-12.92
-16.86
-20.32
-23.27
-25.97
-28.88
-32.47
-37.08
-42.67
-48.81
-54.53
-58.57
-59.69
-57.00
-50.40
-40.61
-29.03
-17.32
-6.89
1.45
7.59
11.89
14.89
16.98
18.38
19.19
19.48
19.32
18.84
18.09
16.99
15.43
13.34
10.81
8.10
5.59
3.65
2.48
2.00
1.93
1.85
1.35
0.22
-1.47
-3.35
-4.87
-5.43
-4.63
-2.29
1.44
6.20
11.57
17.11
22.53
27.65
32.39
36.68
40.43
43.52
45.74
46.86
46.68
45.09
42.22
38.60
35.12
32.88
32.87
35.56
40.68
47.20
53.68
58.74
61.46
61.49
59.02
54.41
47.98
39.92
30.35
19.50
7.77
-4.15
-15.52
-25.65
-34.03
-40.43
-44.75
-46.92
-46.85
-44.38
-39.37
-31.89
-22.25
-11.06
0.87
12.67
23.54
32.86
40.26
45.60
49.00
50.72
51.00
49.99
47.65
43.75
38.07
30.52
21.30
10.93
0.12
-10.35
-19.85
-28.04
-34.94
-40.89
-46.37
-51.90
-57.68
-63.52
-68.72
-72.27
-73.16
-70.74
-64.98
-56.49
-46.34
-35.72
-25.63
-16.70
-9.25
-3.34
1.05
3.98
5.58
6.11
5.97
5.63
5.53
5.89
6.71
7.82
8.92
9.78
10.30
10.54
10.65
10.77
10.88
10.81
10.34
9.27
7.60
5.56
3.51
1.81
0.63
-0.09
-0.63
-1.36
-2.62
-4.54
-7.07
-9.99
-12.97
-15.68
-17.94
-19.75
-21.33
-23.13
-25.66
-29.33
-34.26
-39.99
-45.58
-49.72
-51.07
-48.75
-42.58
-33.23
-21.99
-10.31
0.57
9.93
17.53
23.47
27.94
31.03
32.78
33.23
32.64
31.44
30.11
29.08
28.50
28.27
28.08
27.60
26.68
25.29
23.53
21.52
19.35
17.12
14.96
13.15
11.96
11.56
11.85
12.38
12.54
11.76
9.74
6.60
2.72
-1.41
-5.51
-9.51
-13.61
-18.04
-22.96
-28.42
-34.32
-40.46
-46.47
-51.69
-55.23
-56.12
-53.62
-47.58
-38.59
-27.88
-16.95
-7.12
0.76
6.47
10.25
12.52
13.75
14.26
14.28
13.96
13.40
12.73
12.08
11.60
11.43
11.63
12.15
12.77
13.19
13.20
12.73
11.93
11.03
10.22
9.46
8.52
7.13
5.11
2.48
-0.56
-3.76
-6.95
-10.04
-12.99
-15.77
-18.35
-20.70
-22.90
-25.16
-27.80
-31.11
-35.18
-39.68
-43.83
-46.51
-46.57
-43.21
-36.35
-26.70
-15.58
-4.49
5.30
13.05
18.59
22.14
24.17
25.11
25.35
25.16
24.76
24.29
23.85
23.48
23.17
22.85
22.45
21.93
21.34
20.75
20.24
19.74
19.12
18.11
16.50
14.26
11.56
8.74
6.15
3.96
2.06
0.15
-2.11
-4.91
-8.18
-11.67
-15.00
-17.93
-20.36
-22.39
-24.27
-26.33
-28.88
-32.12
-36.06
-40.28
-43.98
-46.01
-45.25
-40.99
-33.26
-22.95
-11.48
-0.44
8.95
16.08
20.94
23.87
25.35
25.74
25.28
24.22
22.84
21.51
20.53
20.13
20.35
21.11
22.23
23.49
24.63
25.36
25.41
24.65
23.10
20.92
18.32
15.41
12.15
8.41
4.10
-0.71
-5.72
-10.52
-14.64
-17.77
-19.72
-20.44
-20.07
-18.89
-17.42
-16.30
-16.19
-17.48
-20.08
-23.31
-26.08
-27.16
-25.62
-21.14
-14.13
-5.56
3.36
11.51
18.11
22.85
25.75
27.04
26.98
25.81
23.77
21.17
18.39
15.87
13.94
12.76
12.23
12.04
11.85
11.39
10.57
9.47
8.28
7.19
6.27
5.43
4.47
3.12
1.14
-1.54
-4.82
-8.43
-12.05
-15.33
-18.05
-20.14
-21.69
-22.99
-24.44
-26.56
-29.73
-34.05
-39.13
-43.97
-47.20
-47.43
-43.73
-35.98
-24.98
-12.16
0.86
12.75
22.67
30.35
35.87
39.46
41.36
41.73
40.77
38.68
35.75
32.34
28.87
25.71
23.12
21.17
19.75
18.59
17.47
16.23
14.87
13.47
12.08
10.69
9.22
7.53
5.53
3.21
0.64
-2.02
-4.60
-6.99
-9.17
-11.23
-13.32
-15.67
-18.50
-22.00
-26.30
-31.35
-36.77
-41.85
-45.57
-46.83
-44.82
-39.37
-31.01
-20.88
-10.35
-0.64
7.49
13.78
18.35
21.48
23.45
24.48
24.74
24.45
23.85
23.20
22.71
22.46
22.38
22.32
22.10
21.62
20.87
19.90
18.71
17.25
15.46
13.35
11.02
8.67
6.44
4.35
2.23
-0.15
-2.92
-6.02
-9.13
-11.88
-14.01
-15.49
-16.56
-17.67
-19.29
-21.80
-25.30
-29.58
-34.00
-37.60
-39.26
-38.08
-33.66
-26.32
-17.02
-7.05
2.34
10.29
16.44
20.79
23.59
25.10
25.67
25.64
25.39
25.26
25.38
25.66
25.88
25.80
25.30
24.45
23.43
22.44
21.56
20.79
20.02
19.07
17.80
16.12
14.01
11.59
9.02
6.50
4.13
1.91
-0.30
-2.62
-5.11
-7.63
-10.03
-12.14
-13.99
-15.76
-17.77
-20.31
-23.59
-27.59
-32.11
-36.72
-40.70
-43.19
-43.23
-40.16
-33.89
-25.04
-14.88
-4.92
3.54
9.84
13.98
16.46
17.95
18.90
19.50
19.72
19.55
19.06
18.48
18.07
17.99
18.22
18.65
19.13
19.58
20.00
20.34
20.54
20.39
19.69
18.28
16.19
13.66
11.00
8.49
6.21
4.01
1.62
-1.20
-4.46
-7.96
-11.33
-14.27
-16.63
-18.53
-20.27
-22.26
-24.86
-28.27
-32.41
-36.86
-40.88
-43.43
-43.52
-40.47
-34.24
-25.54
-15.61
-5.85
2.61
9.19
13.87
16.98
18.99
20.28
21.12
21.69
22.18
22.75
23.44
24.18
24.74
24.89
24.51
23.66
22.53
21.34
20.25
19.26
18.23
16.95
15.26
13.12
10.59
7.84
5.09
2.50
0.13
-2.05
-4.19
-6.45
-8.90
-11.46
-13.95
-16.19
-18.13
-19.89
-21.80
-24.27
-27.63
-31.99
-37.07
-42.23
-46.49
-48.75
-48.11
-44.13
-37.11
-27.91
-17.81
-8.11
0.24
6.77
11.50
14.74
16.92
18.42
19.48
20.29
20.93
21.50
22.08
22.72
23.43
24.08
24.51
24.55
24.13
23.37
22.51
21.76
21.17
20.49
19.32
17.28
14.20
10.35
6.26
2.55
-0.41
-2.58
-4.31
-6.08
-8.30
-11.10
-14.28
-17.48
-20.33
-22.64
-24.42
-25.90
-27.40
-29.22
-31.65
-34.85
-38.74
-42.93
-46.68
-48.93
-48.67
-45.27
-38.75
-29.84
-19.72
-9.72
-0.79
6.59
12.42
16.95
20.43
22.98
24.66
25.58
25.99
26.25
26.66
27.34
28.17
28.83
29.03
28.63
27.70
26.48
25.24
24.12
23.11
22.07
20.85
19.36
17.55
15.40
12.94
10.24
7.46
4.82
2.51
0.62
-0.93
-2.42
-4.14
-6.26
-8.72
-11.30
-13.72
-15.85
-17.77
-19.72
-21.97
-24.74
-28.09
-32.02
-36.35
-40.74
-44.58
-47.03
-47.20
-44.41
-38.49
-29.99
-20.00
-9.87
-0.77
6.59
12.05
15.91
18.62
20.53
21.83
22.49
22.55
22.12
21.53
21.14
21.23
21.81
22.63
23.27
23.42
22.99
22.16
21.26
20.50
19.93
19.29
18.26
16.58
14.28
11.64
9.09
6.97
5.34
3.97
2.44
0.41
-2.24
-5.31
-8.49
-11.45
-14.06
-16.37
-18.60
-20.96
-23.56
-26.50
-29.83
-33.55
-37.42
-40.91
-43.21
-43.38
-40.77
-35.27
-27.45
-18.44
-9.47
-1.63
4.52
8.86
11.61
13.13
13.83
14.09
14.33
14.92
16.19
18.24
20.98
24.09
27.16
29.76
31.56
32.36
32.04
30.60
28.11
24.76
20.84
16.71
12.77
9.33
6.55
4.41
2.80
1.44
0.07
-1.57
-3.61
-6.05
-8.83
-11.78
-14.80
-17.90
-21.19
-24.85
-29.10
-34.11
-39.93
-46.38
-52.88
-58.49
-61.99
-62.26
-58.69
-51.51
-41.72
-30.79
-20.12
-10.67
-2.85
3.39
8.26
11.95
14.57
16.27
17.34
18.13
18.99
20.14
21.58
23.13
24.56
25.65
26.32
26.59
26.52
26.15
25.49
24.50
23.14
21.40
19.37
17.22
15.14
13.22
11.40
9.48
7.25
4.53
1.34
-2.17
-5.74
-9.14
-12.23
-15.05
-17.76
-20.69
-24.20
-28.54
-33.74
-39.41
-44.71
-48.49
-49.57
-47.18
-41.19
-32.28
-21.69
-10.85
-0.99
7.14
13.34
17.76
20.74
22.62
23.64
24.07
24.23
24.44
24.96
25.83
26.83
27.56
27.68
27.09
25.90
24.47
23.06
21.77
20.48
18.97
17.10
14.89
12.53
10.24
8.14
6.19
4.23
2.07
-0.36
-3.02
-5.74
-8.34
-10.70
-12.84
-14.91
-17.09
-19.64
-22.74
-26.55
-31.09
-36.15
-41.14
-45.15
-47.07
-45.93
-41.25
-33.34
-23.20
-12.27
-1.99
6.63
13.19
17.83
21.01
23.23
24.93
26.32
27.47
28.35
28.91
29.11
28.95
28.56
28.08
27.70
27.52
27.49
27.45
27.16
26.40
25.04
23.08
20.67
18.00
15.28
12.66
10.16
7.77
5.39
2.88
0.13
-2.88
-6.09
-9.33
-12.34
-14.94
-17.10
-19.01
-21.11
-23.84
-27.54
-32.13
-37.00
-41.06
-43.08
-42.04
-37.48
-29.74
-19.84
-9.16
0.94
9.50
16.07
20.70
23.69
25.42
26.24
26.45
26.33
26.14
26.13
26.40
26.89
27.38
27.57
27.26
26.35
24.94
23.26
21.52
19.88
18.45
17.21
16.03
14.75
13.19
11.26
8.97
6.53
4.25
2.36
0.92
-0.24
-1.49
-3.26
-5.77
-8.95
-12.52
-16.05
-19.18
-21.76
-23.89
-25.88
-28.16
-31.14
-35.02
-39.68
-44.51
-48.47
-50.36
-49.12
-44.30
-36.25
-26.07
-15.20
-5.04
3.51
10.18
15.12
18.72
21.31
23.10
24.19
24.71
24.85
24.86
25.02
25.44
26.13
26.91
27.49
27.62
27.11
26.04
24.62
23.17
21.93
20.93
19.94
18.66
16.85
14.51
11.91
9.47
7.51
6.19
5.26
4.29
2.81
0.54
-2.50
-5.98
-9.50
-12.72
-15.55
-18.06
-20.45
-22.90
-25.58
-28.68
-32.43
-37.04
-42.46
-48.17
-53.09
-55.82
-55.08
-50.21
-41.51
-30.14
-17.81
-6.20
3.53
10.88
15.98
19.32
21.44
22.75
23.50
23.82
23.87
23.84
23.87
24.10
24.48
24.89
25.15
25.12
24.75
24.09
23.27
22.47
21.79
21.21
20.60
19.72
18.35
16.41
14.01
11.37
8.77
6.34
4.09
1.90
-0.39
-2.87
-5.53
-8.37
-11.33
-14.36
-17.32
-20.06
-22.43
-24.42
-26.20
-28.19
-30.85
-34.56
-39.38
-44.92
-50.35
-54.47
-56.10
-54.33
-48.85
-40.14
-29.27
-17.71
-6.91
2.10
8.94
13.75
17.06
19.43
21.25
22.69
23.76
24.47
24.91
25.28
25.71
26.24
26.73
26.97
26.78
26.16
25.25
24.32
23.53
22.89
22.28
21.48
20.29
18.66
16.65
14.40
12.06
9.73
7.43
5.22
3.13
1.19
-0.65
-2.56
-4.75
-7.37
-10.43
-13.74
-17.06
-20.18
-23.12
-26.07
-29.44
-33.61
-38.75
-44.64
-50.61
-55.63
-58.48
-58.08
-53.90
-46.20
-36.04
-24.95
-14.45
-5.61
1.16
6.01
9.41
11.82
13.44
14.20
14.05
13.20
12.12
11.46
11.82
13.43
16.28
19.89
23.50
26.75
29.63
32.44
35.63
39.55
44.32
49.93
55.74
60.40
62.91
62.77
59.98
55.25
49.74
44.75
41.54
40.24
39.49
38.10
35.31
31.12
26.57
23.48
23.90
29.69
40.86
54.84
68.54
78.56
81.86
76.64
62.98
39.76
10.89
-14.33
-33.56
-47.94
-59.80
-72.34
-88.12
-107.68
-128.86
-146.61
-155.27
-150.85
-131.14
-97.12
-53.37
-6.89
34.89
66.20
84.75
91.17
87.83
78.55
67.00
55.53
45.32
36.84
30.43
26.61
25.42
25.85
26.60
26.29
23.95
19.47
13.71
8.08
3.92
1.62
0.21
-1.94
-6.51
-14.69
-26.48
-40.75
-55.65
-69.30
-80.56
-89.24
-95.75
-100.45
-103.06
-102.35
-96.54
-84.05
-64.52
-39.30
-11.40
15.45
37.88
53.90
63.27
67.11
67.15
64.89
61.21
56.44
50.73
44.35
37.77
31.45
25.50
19.68
13.52
6.62
-1.10
-9.28
-17.28
-24.41
-30.16
-34.33
-37.12
-38.96
-40.51
-42.39
-45.16
-49.14
-54.48
-61.07
-68.68
-76.86
-85.06
-92.72
-99.39
-104.95
-109.44
-112.83
-114.68
-114.00
-109.48
-100.08
-85.62
-67.14
-46.69
-26.71
-9.26
4.51
14.38
20.82
24.53
26.15
26.19
25.12
23.46
21.82
20.75
20.60
21.39
22.79
24.27
25.34
25.71
25.46
24.92
24.49
24.31
24.19
23.64
22.14
19.46
15.84
11.93
8.46
5.91
4.24
2.85
0.89
-2.46
-7.58
-14.21
-21.43
-27.82
-31.73
-31.59
-26.32
-15.65
-0.27
18.18
37.46
55.29
69.99
80.87
88.36
93.53
97.54
101.09
104.21
106.54
107.70
107.75
107.17
106.49
105.92
105.00
102.91
98.96
93.08
86.04
79.21
73.79
70.13
67.47
64.06
57.96
47.81
33.51
16.22
-2.09
-19.46
-34.63
-47.28
-57.97
-67.58
-76.92
-86.32
-95.62
-104.22
-111.32
-116.17
-118.33
-117.90
-115.66
-112.90
-110.85
-110.16
-110.32
-109.81
-106.63
-99.21
-87.16
-71.40
-53.72
-36.11
-20.05
-6.35
4.81
13.52
19.94
24.31
26.98
28.42
29.24
30.08
31.54
34.38
39.62
48.64
62.85
82.88
107.64
133.79
156.09
168.64
166.89
149.26
117.82
77.56
34.56
-5.98
-40.99
-69.55
-91.89
-108.37
-118.90
-123.35
-122.44
-118.27
-114.09
-113.19
-117.44
-126.40
-137.41
-146.81
-151.38
-149.65
-142.06
-130.43
-116.91
-103.08
-89.60
-76.30
-62.51
-47.47
-30.45
-10.98
11.16
35.80
62.51
90.55
119.04
146.72
171.84
192.04
204.60
207.15
198.53
179.54
153.12
123.96
97.34
77.72
67.42
65.78
69.23
72.34
69.72
57.79
36.05
7.02
-24.90
-55.08
-80.04
-97.93
-108.27
-111.39
-107.95
-99.01
-86.25
-72.03
-59.05
-49.66
-45.26
-45.93
-50.52
-57.10
-63.46
-67.65
-68.27
-64.65
-56.72
-44.92
-30.12
-13.68
2.53
16.35
25.91
30.40
30.82
29.99
31.72
39.21
53.71
73.84
96.10
116.21
130.70
137.69
137.29
130.76
119.85
106.35
91.95
78.13
65.99
55.86
47.28
39.56
31.89
23.63
14.52
4.88
-4.42
-12.31
-17.79
-20.36
-19.64
-16.06
-10.82
-5.56
-1.57
0.81
2.03
2.83
3.83
5.97
9.79
15.35
22.25
30.00
38.30
46.87
55.49
59.24
54.75
41.62
22.91
2.58
-16.89
-34.55
-50.11
-62.92
-72.03
-75.72
-73.40
-66.05
-56.34
-48.08
-43.59
-44.07
-49.29
-57.91
-67.35
-75.42
-80.56
-82.00
-79.44
-72.56
-61.25
-45.56
-26.32
-3.96
18.68
37.98
50.86
55.70
52.84
44.10
32.23
18.72
5.99
-3.79
-9.25
-10.72
-9.92
-9.09
-10.56
-13.69
-16.00
-14.12
-5.67
10.02
31.37
55.36
77.04
90.61
91.94
80.59
60.36
38.07
21.85
19.04
33.53
63.75
102.63
140.37
169.23
184.85
187.11
179.58
166.95
152.57
137.09
119.22
96.60
68.09
35.73
3.04
-26.41
-49.49
-63.29
-64.97
-52.23
-26.48
8.23
45.06
75.30
90.74
86.34
61.99
21.96
-27.23
-82.07
-139.34
-196.28
-251.01
-303.07
-353.02
-401.32
-447.11
-487.34
-520.36
-541.47
-544.62
-525.94
-486.59
-432.80
-373.05
-315.15
-242.99
-155.58
-63.58
18.44
82.22
128.08
160.61
184.86
203.29
216.31
218.98
208.42
186.36
158.25
130.52
108.07
93.98
88.28
88.47
88.23
83.78
75.42
66.46
60.76
60.93
69.17
85.41
107.08
128.29
144.63
154.80
160.21
163.81
168.92
179.86
198.78
224.11
250.43
272.27
286.22
291.28
288.44
268.22
229.35
180.50
134.46
98.65
73.14
54.28
38.62
24.69
12.81
4.62
1.04
0.87
1.46
0.82
-1.40
-4.40
-7.67
-7.98
-3.88
4.18
14.07
23.25
30.27
35.07
38.48
41.62
45.86
53.21
65.59
83.56
105.52
127.89
145.87
154.73
151.53
136.25
111.75
82.53
52.49
23.62
-4.05
-31.49
-59.58
-88.16
-115.93
-141.10
-162.02
-177.92
-188.66
-194.13
-193.76
-186.60
-172.13
-151.14
-126.18
-100.69
-77.64
-58.23
-41.64
-26.02
-10.08
5.66
19.04
27.39
29.37
25.77
19.21
12.90
9.27
9.31
12.69
18.25
24.38
29.16
30.38
25.88
14.34
-3.97
-26.96
-51.43
-74.40
-94.47
-112.40
-130.60
-151.90
-178.20
-209.61
-244.61
-280.66
-315.08
-345.76
-371.32
-391.00
-404.32
-410.80
-409.88
-400.80
-382.81
-355.59
-319.73
-277.01
-230.12
-182.01
-134.89
-89.56
-45.27
-0.15
48.11
101.49
160.66
223.90
286.26
339.92
375.77
386.43
369.20
327.58
270.41
208.88
152.84
108.08
75.73
53.44
37.62
25.39
15.81
10.01
10.50
19.96
39.88
69.43
105.16
141.64
172.87
193.70
200.95
193.84
173.96
144.92
111.65
79.57
53.34
35.73
26.87
24.56
25.08
24.50
19.69
8.98
-7.66
-28.49
-50.21
-68.57
-79.54
-80.58
-71.54
-54.60
-33.40
-11.63
8.10
24.71
38.53
50.75
62.80
75.96
91.01
108.09
126.59
145.27
162.45
176.39
185.45
188.20
183.55
170.98
150.86
124.72
95.01
64.46
35.30
8.86
-14.18
-33.12
-46.77
-53.50
-52.07
-42.48
-26.27
-6.03
15.62
36.91
56.93
74.89
89.08
96.69
94.49
80.30
54.24
19.02
-21.04
-61.54
-99.30
-132.52
-160.36
-181.93
-195.91
-200.93
-196.65
-184.67
-168.66
-153.49
-143.72
-142.34
-150.13
-165.87
-186.97
-210.13
-231.72
-248.10
-255.95
-252.92
-238.52
-214.75
-185.98
-158.10
-136.50
-123.98
-119.21
-116.55
-107.58
-83.82
-39.97
23.49
99.41
175.42
237.24
273.08
277.26
251.82
205.41
149.88
96.24
51.47
17.57
-7.35
-26.68
-43.01
-57.08
-67.81
-73.46
-72.57
-64.75
-50.98
-33.49
-15.44
-0.26
9.22
11.76
8.35
2.32
-1.43
2.12
16.29
41.27
73.52
106.72
133.49
147.45
144.82
124.96
90.04
44.29
-6.87
-57.52
-102.00
-135.72
-156.16
-163.54
-160.66
-151.86
-141.68
-133.35
-128.07
-124.82
-120.69
-111.32
-91.79
-58.00
-8.28
55.45
127.45
199.25
261.69
307.20
331.33
333.07
314.17
278.03
228.80
170.79
108.29
45.27
-14.73
-68.82
-114.88
-151.41
-177.72
-194.05
-201.82
-203.45
-201.59
-197.61
-190.61
-177.54
-154.91
-121.47
-80.13
-37.46
-0.94
24.93
41.19
53.89
70.89
97.61
134.17
175.42
213.49
241.31
255.01
254.49
242.28
221.90
196.59
168.90
140.81
113.98
89.95
69.87
54.04
41.54
30.10
16.84
-0.91
-23.73
-49.52
-74.38
-94.36
-107.16
-112.59
-111.85
-106.46
-97.79
-86.53
-73.27
-59.24
-46.50
-37.28
-32.82
-32.78
-35.41
-39.31
-42.93
-44.86
-44.05
-40.39
-34.81
-29.18
-25.82
-27.12
-37.08
-57.23
-85.62
-118.07
-150.81
-181.82
-210.58
-237.06
-261.36
-287.92
-318.64
-351.73
-383.70
-412.72
-439.19
-464.02
-486.73
-506.34
-529.19
-558.18
-590.14
-617.84
-634.98
-638.16
-626.30
-599.41
-560.29
-523.27
-498.37
-486.51
-481.55
-477.55
-471.91
-464.85
-457.06
-386.30
-232.86
-27.54
172.63
328.81
432.97
494.45
522.39
533.51
536.25
524.70
496.27
456.77
417.90
387.12
366.88
355.76
351.56
350.68
342.83
322.76
292.84
260.33
231.16
207.69
189.36
175.16
163.02
146.85
123.78
95.72
67.56
43.26
24.46
10.87
1.82
-4.16
-10.46
-18.92
-29.01
-38.76
-46.60
-51.96
-55.12
-56.43
-56.53
-56.66
-57.45
-58.65
-59.50
-59.41
-58.13
-55.67
-52.08
-47.48
-41.98
-35.67
-28.70
-21.32
-13.78
-6.28
1.14
8.53
16.06
23.88
32.04
40.48
48.99
57.35
65.43
73.31
81.28
89.76
99.14
109.66
121.29
133.80
146.84
160.14
173.58
187.25
201.44
216.59
233.23
251.77
272.23
293.89
315.12
333.62
346.95
353.34
352.23
344.42
331.66
315.91
298.74
280.98
262.90
244.55
226.09
207.89
190.43
174.04
158.90
144.94
132.05
120.10
108.99
98.63
88.87
79.54
70.40
61.32
52.13
42.74
33.08
23.15
13.11
3.23
-6.09
-14.51
-21.86
-28.30
-34.22
-40.18
-46.65
-53.97
-62.14
-70.83
-79.36
-86.69
-91.58
-92.85
-89.72
-82.14
-70.85
-57.27
-43.07
-29.72
-18.21
-8.99
-2.00
3.08
6.66
9.18
11.05
12.67
14.36
16.36
18.73
21.39
24.08
26.47
28.27
29.28
29.50
29.01
27.95
26.32
23.95
20.63
16.20
10.74
4.57
-1.82
-7.97
-13.68
-18.98
-24.17
-29.64
-35.76
-42.71
-50.36
-58.15
-65.11
-69.98
-71.52
-68.96
-62.29
-52.37
-40.68
-28.90
-18.37
-9.86
-3.50
0.94
3.89
5.75
6.92
7.85
9.04
11.01
14.10
18.37
23.59
29.35
35.14
40.61
45.47
49.60
52.90
55.27
56.56
56.57
55.08
51.94
47.18
41.06
34.06
26.72
19.50
12.54
5.67
-1.50
-9.35
-17.96
-27.00
-35.58
-42.54
-46.66
-47.04
-43.39
-36.11
-26.30
-15.37
-4.72
4.57
11.95
17.33
20.86
22.80
23.40
22.93
21.73
20.24
18.93
18.18
18.14
18.68
19.46
20.06
20.14
19.54
18.41
17.02
15.67
14.45
13.19
11.52
9.05
5.60
1.35
-3.24
-7.60
-11.36
-14.49
-17.29
-20.30
-23.99
-28.67
-34.38
-40.82
-47.37
-53.10
-56.91
-57.80
-55.16
-49.09
-40.40
-30.50
-20.89
-12.78
-6.76
-2.81
-0.59
0.22
-0.22
-1.95
-4.95
-8.97
-13.44
-17.71
-21.29
-24.16
-26.81
-30.04
-34.54
-40.67
-48.19
-56.49
-64.80
-72.57
-79.59
-86.03
-92.24
-98.57
-105.00
-111.16
-116.27
-119.37
-119.52
-116.09
-108.94
-98.41
-85.30
-70.67
-55.54
-40.62
-26.06
-11.41
4.29
22.03
42.41
65.18
89.12
112.25
132.38
147.83
157.88
162.93
164.17
162.99
160.43
156.80
151.79
144.80
135.42
123.68
110.09
95.38
80.34
65.54
51.46
38.52
27.17
17.87
10.98
6.66
4.87
5.39
7.94
12.20
17.88
24.63
31.97
39.19
45.42
49.75
51.49
50.49
47.23
42.69
37.89
33.43
29.25
24.73
19.13
12.04
3.69
-5.24
-13.96
-21.99
-29.33
-36.24
-42.96
-49.48
-55.48
-60.56
-64.51
-67.39
-69.47
-71.03
-72.17
-72.71
-72.37
-70.92
-68.39
-65.14
-61.75
-58.83
-56.67
-55.20
-53.92
-52.18
-49.46
-45.58
-40.85
-35.85
-31.24
-27.44
-24.64
-22.74
-21.60
-21.11
-21.29
-22.31
-24.42
-27.83
-32.62
-38.59
-45.12
-51.16
-55.28
-56.08
-52.63
-44.79
-33.42
-20.12
-6.79
4.93
14.07
20.44
24.41
26.62
27.65
27.97
27.94
27.96
28.32
29.22
30.46
31.42
31.21
29.02
24.47
17.87
10.15
2.57
-3.68
-7.78
-9.44
-8.88
-6.59
-3.20
0.70
4.66
8.41
11.76
14.56
16.59
17.62
17.40
15.85
13.11
9.60
6.03
3.23
1.97
2.67
5.26
9.07
13.06
16.07
17.20
16.07
12.85
8.12
2.63
-3.02
-8.44
-13.51
-18.19
-22.45
-26.18
-29.30
-31.78
-33.73
-35.37
-36.93
-38.49
-39.95
-41.02
-41.40
-41.02
-40.08
-39.10
-38.67
-39.16
-40.53
-42.37
-44.03
-44.95
-44.94
-44.16
-43.11
-42.40
-42.46
-43.55
-45.56
-48.06
-50.32
-51.41
-50.36
-46.46
-39.51
-29.95
-18.84
-7.52
2.74
11.05
17.04
20.80
22.72
23.31
23.06
22.39
21.67
21.18
21.09
21.46
22.18
23.04
23.84
24.37
24.50
24.11
23.16
21.55
19.22
16.16
12.39
8.09
3.46
-1.23
-5.77
-10.07
-14.15
-18.22
-22.52
-27.38
-32.95
-39.17
-45.51
-51.06
-54.54
-54.78
-51.06
-43.44
-32.83
-20.73
-8.78
1.76
10.28
16.73
21.42
24.71
26.84
27.97
28.29
28.11
27.80
27.66
27.82
28.14
28.34
28.15
27.43
26.31
25.03
23.81
22.67
21.37
19.58
16.95
13.40
9.10
4.50
0.04
-3.93
-7.37
-10.47
-13.60
-17.17
-21.47
-26.51
-31.92
-36.92
-40.45
-41.40
-39.01
-33.10
-24.23
-13.49
-2.29
8.13
16.95
23.84
28.92
32.49
34.82
36.09
36.44
36.04
35.23
34.45
34.11
34.43
35.24
36.10
36.47
35.93
34.41
32.16
29.56
26.97
24.50
22.06
19.43
16.39
12.86
8.90
4.66
0.40
-3.67
-7.38
-10.73
-13.88
-17.14
-20.91
-25.50
-31.00
-37.13
-43.20
-48.19
-50.95
-50.51
-46.35
-38.61
-28.18
-16.45
-4.98
4.92
12.45
17.43
20.12
21.03
20.67
19.49
17.85
16.11
14.61
13.60
13.22
13.31
13.52
13.33
12.36
10.35
7.37
3.67
-0.41
-4.58
-8.69
-12.71
-16.64
-20.47
-24.14
-27.45
-30.14
-31.94
-32.57
-31.87
-29.76
-26.31
-21.73
-16.38
-10.73
-5.27
-0.47
3.38
6.27
8.66
11.35
15.28
21.13
28.95
37.93
46.61
53.33
56.78
56.52
52.96
47.20
40.48
33.78
27.59
22.04
17.09
12.73
9.04
6.13
3.99
2.48
1.31
0.19
-1.05
-2.45
-3.89
-5.26
-6.48
-7.59
-8.69
-9.90
-11.30
-12.85
-14.45
-15.96
-17.28
-18.37
-19.24
-19.94
-20.61
-21.40
-22.50
-24.14
-26.49
-29.66
-33.57
-37.90
-42.06
-45.17
-46.27
-44.50
-39.50
-31.54
-21.52
-10.77
-0.62
7.95
14.49
19.03
21.88
23.43
24.00
23.83
23.23
22.50
21.96
21.84
22.17
22.76
23.32
23.53
23.12
21.99
20.15
17.75
15.04
12.27
9.63
7.17
4.76
2.19
-0.76
-4.15
-7.84
-11.53
-14.93
-17.86
-20.39
-22.74
-25.16
-27.87
-31.01
-34.59
-38.54
-42.63
-46.37
-49.00
-49.59
-47.34
-41.93
-33.71
-23.62
-12.98
-3.00
5.48
12.11
16.92
20.11
21.88
22.42
21.94
20.79
19.44
18.38
17.97
18.33
19.27
20.34
21.06
21.05
20.16
18.51
16.42
14.20
12.07
10.04
7.97
5.65
2.90
-0.31
-3.88
-7.53
-10.95
-13.87
-16.21
-18.13
-19.96
-22.17
-25.17
-29.22
-34.20
-39.66
-44.76
-48.44
-49.65
-47.63
-42.18
-33.79
-23.56
-12.85
-2.98
5.23
11.45
15.80
18.64
20.33
21.17
21.37
21.15
20.73
20.40
20.32
20.54
20.91
21.14
20.91
20.02
18.42
16.31
13.99
11.77
9.76
7.87
5.83
3.35
0.32
-3.14
-6.72
-10.08
-13.02
-15.54
-17.82
-20.19
-22.93
-26.25
-30.25
-34.85
-39.70
-44.17
-47.26
-47.94
-45.36
-39.30
-30.31
-19.59
-8.63
1.30
9.40
15.50
19.80
22.66
24.38
25.18
25.30
25.02
24.68
24.59
24.91
25.59
26.41
27.06
27.25
26.77
25.54
23.68
21.43
19.08
16.81
14.58
12.17
9.28
5.78
1.77
-2.40
-6.31
-9.63
-12.34
-14.61
-16.77
-19.15
-21.99
-25.43
-29.52
-34.19
-39.11
-43.68
-46.98
-47.98
-45.85
-40.31
-31.80
-21.47
-10.77
-1.08
6.73
12.45
16.41
19.15
21.15
22.65
23.69
24.25
24.43
24.50
24.74
25.39
26.44
27.66
28.75
29.45
29.66
29.48
29.06
28.51
27.83
26.95
25.78
24.26
22.39
20.24
17.80
15.07
12.05
8.82
5.52
2.34
-0.59
-3.23
-5.66
-8.03
-10.56
-13.47
-16.98
-21.17
-25.86
-30.48
-34.17
-35.86
-34.71
-30.40
-23.34
-14.57
-5.45
2.76
9.26
13.88
16.90
18.84
20.16
21.11
21.75
22.12
22.27
22.37
22.58
22.97
23.46
23.84
23.93
23.64
23.05
22.30
21.50
20.63
19.56
18.09
16.11
13.65
10.88
8.09
5.50
3.21
1.15
-0.90
-3.19
-5.91
-9.04
-12.37
-15.55
-18.32
-20.55
-22.39
-24.21
-26.41
-29.27
-32.69
-36.19
-38.92
-39.92
-38.42
-34.09
-27.16
-18.41
-8.90
0.23
8.08
14.14
18.26
20.62
21.59
21.54
20.86
19.86
18.83
18.02
17.58
17.59
17.90
18.24
18.26
17.76
16.77
15.58
14.57
13.99
13.86
13.92
13.84
13.42
12.64
11.70
10.81
10.06
9.38
8.60
7.52
6.06
4.23
2.06
-0.38
-3.03
-5.78
-8.50
-11.09
-13.62
-16.29
-19.42
-23.15
-27.34
-31.40
-34.40
-35.38
-33.67
-29.22
-22.60
-14.89
-7.29
-0.82
3.98
7.04
8.65
9.18
8.99
8.36
7.56
6.89
6.68
7.17
8.43
10.26
12.30
14.14
15.49
16.22
16.37
16.07
15.50
14.84
14.15
13.39
12.43
11.07
9.22
6.94
4.49
2.16
0.15
-1.57
-3.21
-4.99
-7.05
-9.28
-11.44
-13.38
-15.08
-16.77
-18.79
-21.49
-25.02
-29.17
-33.39
-36.88
-38.71
-38.14
-34.84
-29.04
-21.50
-13.35
-5.74
0.44
4.71
7.04
7.72
7.22
5.96
4.26
2.28
0.08
-2.27
-4.70
-7.02
-9.09
-10.81
-12.18
-13.31
-14.34
-15.40
-16.58
-17.94
-19.56
-21.54
-23.92
-26.76
-30.03
-33.65
-37.53
-41.59
-45.84
-50.31
-55.03
-59.86
-64.47
-68.36
-71.00
-72.07
-71.68
-70.41
-69.18
-68.81
-69.52
-70.85
-71.76
-70.98
-67.51
-60.85
-51.15
-39.02
-25.34
-10.80
3.85
17.83
30.33
40.66
48.38
53.32
55.75
56.35
56.69
58.32
62.44
69.60
79.61
91.63
104.37
116.48
126.98
136.16
144.51
152.43
160.16
167.76
175.00
181.14
184.85
184.28
178.43
166.42
148.02
124.17
97.20
70.28
46.38
27.31
7.70
-14.55
-38.55
-61.32
-80.28
-94.67
-105.28
-113.55
-120.61
-127.36
-132.57
-134.72
-133.03
-127.82
-120.15
-111.18
-101.58
-91.53
-80.52
-68.06
-54.58
-41.18
-29.22
-19.82
-13.48
-9.88
-8.22
-7.60
-6.81
-5.06
-2.17
1.35
4.26
5.34
4.32
1.98
-0.15
-0.43
1.96
6.60
12.07
16.31
18.07
18.01
18.48
22.67
33.30
51.53
76.80
107.06
139.20
164.14
172.30
158.40
124.88
79.40
30.16
-16.18
-53.70
-80.86
-95.46
-95.81
-82.31
-57.98
-27.88
2.72
28.23
43.71
46.31
37.30
20.47
0.20
-20.14
-38.49
-53.69
-65.09
-72.39
-77.41
-80.47
-82.00
-82.35
-81.73
-80.38
-78.73
-77.50
-77.55
-79.85
-83.28
-87.57
-92.34
-96.85
-100.08
-101.08
-99.20
-94.31
-86.73
-76.90
-65.78
-54.14
-42.39
-30.63
-18.93
-7.63
2.68
11.42
18.46
23.77
27.78
31.14
34.48
38.20
42.35
46.80
51.34
55.75
59.61
62.55
64.32
64.96
64.70
63.85
62.57
60.83
58.55
55.77
52.83
50.30
48.69
48.07
48.07
47.91
46.73
43.82
38.85
31.88
23.37
14.15
5.33
-1.87
-6.44
-7.81
-6.03
-1.63
4.56
11.69
19.09
26.25
32.80
38.43
42.87
45.98
47.75
48.33
47.99
46.97
45.39
43.27
40.54
37.20
33.41
29.50
25.89
22.91
20.73
19.23
18.10
17.00
15.59
13.78
11.66
9.51
7.64
6.30
5.51
5.08
4.66
3.88
2.47
0.33
-2.47
-5.78
-9.47
-13.51
-17.90
-22.74
-28.13
-34.15
-40.77
-47.68
-54.23
-59.45
-62.23
-61.63
-57.27
-49.43
-39.09
-27.58
-16.16
-5.71
3.40
11.21
17.89
23.52
28.01
31.21
33.06
33.73
33.59
33.10
32.65
32.38
32.28
32.21
32.05
31.69
31.06
30.04
28.53
26.50
23.99
21.18
18.28
15.48
12.86
10.38
7.94
5.48
3.01
0.56
-1.84
-4.22
-6.75
-9.66
-13.22
-17.63
-22.90
-28.84
-34.93
-40.40
-44.33
-45.94
-44.76
-40.84
-34.77
-27.47
-19.96
-13.08
-7.39
-3.10
-0.12
1.81
3.06
3.94
4.74
5.58
6.47
7.35
8.14
8.82
9.42
9.99
10.55
11.05
11.45
11.72
11.90
12.11
12.45
12.97
13.65
14.42
15.23
16.01
16.71
17.26
17.59
17.65
17.42
16.90
16.11
14.96
13.25
10.68
6.91
1.76
-4.76
-12.35
-20.46
-28.35
-35.13
-39.99
-42.33
-41.96
-39.27
-35.11
-30.58
-26.70
-24.09
-22.87
-22.73
-23.16
-23.67
-23.90
-23.70
-22.98
-21.74
-20.00
-17.82
-15.30
-12.62
-9.96
-7.56
-5.60
-4.23
-3.46
-3.21
-3.24
-3.32
-3.25
-3.03
-2.79
-2.73
-3.04
-3.76
-4.79
-5.94
-7.07
-8.10
-9.06
-9.99
-10.99
-12.16
-13.72
-15.90
-18.94
-22.96
-27.79
-32.81
-37.10
-39.60
-39.61
-36.95
-32.02
-25.71
-19.14
-13.29
-8.77
-5.78
-4.18
-3.80
-4.42
-5.75
-7.49
-9.39
-11.16
-12.51
-13.19
-13.17
-12.97
-13.19
-14.25
-16.26
-19.07
-22.33
-25.54
-28.24
-30.13
-31.62
-33.15
-34.80
-36.36
-37.51
-37.77
-36.48
-32.91
-26.54
-17.95
-8.08
2.31
12.90
23.71
35.07
47.50
61.37
80.38
105.00
133.02
161.35
187.75
210.44
226.89
233.93
229.35
213.73
191.23
165.97
142.06
122.48
107.75
96.25
85.43
73.15
58.04
38.51
17.18
-4.40
-25.18
-44.73
-63.07
-80.48
-97.43
-114.59
-133.01
-153.17
-174.57
-194.81
-210.10
-216.13
-209.35
-188.17
-153.59
-109.11
-59.57
-9.94
36.24
77.42
113.87
146.99
178.23
208.10
235.67
258.85
275.05
282.34
280.01
268.54
249.26
223.87
194.29
162.64
131.32
102.77
79.08
61.32
49.08
40.59
33.31
24.82
13.58
-0.73
-17.47
-35.45
-53.36
-70.04
-84.50
-95.92
-103.67
-107.64
-108.40
-107.28
-106.07
-106.52
-109.86
-116.60
-126.67
-139.57
-154.48
-170.14
-184.69
-195.89
-201.62
-200.50
-192.49
-178.81
-161.53
-142.79
-124.29
-107.10
-91.89
-79.13
-69.32
-62.80
-59.54
-58.89
-59.69
-60.54
-60.30
-58.38
-54.83
-50.19
-45.19
-40.39
-36.05
-32.03
-27.86
-22.91
-16.56
-8.37
1.75
13.52
26.25
39.04
50.98
61.51
70.58
78.71
86.68
95.00
103.59
111.64
117.91
121.25
121.05
117.32
110.51
101.12
89.48
75.93
60.93
45.28
29.77
14.73
-0.36
-16.71
-35.65
-57.81
-82.54
-107.99
-131.81
-152.02
-167.45
-177.55
-181.85
-179.84
-171.41
-157.57
-140.92
-125.05
-113.08
-106.16
-102.83
-99.79
-93.70
-82.85
-67.79
-50.54
-33.12
-16.43
0.02
17.23
35.75
55.13
74.29
92.08
107.90
121.75
133.90
144.46
153.21
159.68
163.54
164.84
163.95
161.34
157.41
152.35
146.34
139.66
132.68
125.63
118.31
110.07
100.04
87.65
73.10
57.40
41.97
27.89
15.47
4.10
-7.27
-19.56
-33.05
-47.38
-61.73
-75.13
-86.63
-95.20
-99.75
-99.34
-93.58
-82.98
-69.03
-53.79
-39.30
-27.15
-18.22
-13.02
-11.82
-14.71
-21.35
-30.71
-41.12
-50.77
-58.30
-63.27
-65.97
-67.02
-66.79
-65.06
-61.28
-54.89
-45.81
-34.72
-23.04
-12.77
-5.91
-3.83
-6.68
-13.16
-20.91
-27.40
-30.85
-30.80
-27.99
-23.67
-18.75
-13.41
-7.27
0.14
8.72
17.75
26.08
32.68
37.05
39.27
39.75
38.86
36.76
33.34
28.41
21.94
14.13
5.43
-3.67
-12.75
-21.55
-29.88
-37.72
-45.04
-51.82
-57.97
-63.24
-67.25
-69.55
-69.85
-68.16
-64.98
-61.04
-57.00
-53.24
-49.63
-45.76
-41.16
-35.55
-29.06
-22.04
-15.01
-8.44
-2.63
2.34
6.54
10.16
13.41
16.54
19.81
23.44
27.57
32.07
36.52
40.27
42.66
43.40
42.72
41.42
40.54
41.03
43.44
47.88
54.15
61.91
70.86
80.67
90.88
100.87
109.93
117.45
122.95
126.16
126.95
125.36
121.59
116.23
110.19
104.72
101.10
100.27
102.40
106.47
110.18
110.18
103.04
86.40
60.06
26.29
-10.79
-46.59
-77.35
-101.01
-117.04
-125.89
-128.30
-125.11
-117.42
-106.81
-95.39
-85.56
-79.52
-78.87
-84.16
-94.57
-107.81
-120.34
-128.28
-128.56
-120.15
-104.35
-84.12
-62.73
-42.47
-24.14
-7.44
8.11
22.40
34.70
44.23
50.85
55.35
58.96
62.64
66.50
69.74
71.23
70.18
66.53
60.84
53.85
46.13
37.95
29.62
21.66
14.97
10.51
8.82
9.64
11.93
14.23
15.11
13.49
8.79
0.88
-10.05
-23.51
-38.80
-55.08
-71.60
-87.96
-104.16
-120.47
-137.00
-153.26
-168.07
-179.75
-186.77
-188.44
-185.10
-178.05
-168.83
-158.70
-148.25
-137.52
-126.41
-115.10
-104.07
-93.91
-84.96
-77.05
-69.66
-62.28
-54.71
-47.22
-40.36
-34.74
-30.56
-27.62
-25.41
-23.33
-20.89
-17.96
-14.65
-11.27
-8.24
-5.88
-4.45
-3.97
-4.25
-4.97
-5.74
-6.29
-6.54
-6.60
-6.76
-7.31
-8.48
-10.36
-12.81
-15.43
-17.66
-18.81
-18.38
-16.24
-12.72
-8.50
-4.30
-0.58
2.58
5.41
8.20
11.07
13.93
16.62
19.12
21.63
24.45
27.81
31.64
35.66
39.44
42.68
45.19
46.96
48.05
48.51
48.41
47.86
47.04
46.05
44.93
43.59
41.89
39.74
37.23
34.62
32.23
30.31
28.86
27.68
26.40
24.71
22.40
19.50
16.19
12.76
9.49
6.63
4.46
3.21
3.08
4.20
6.47
9.54
12.91
16.04
18.55
20.30
21.38
22.01
22.45
22.89
23.45
24.15
24.99
25.83
26.57
27.04
27.15
26.92
26.52
26.14
25.90
25.77
25.48
24.68
23.00
20.30
16.63
12.30
7.70
3.12
-1.31
-5.74
-10.54
-16.05
-22.49
-29.75
-37.33
-44.40
-50.02
-53.38
-53.98
-51.84
-47.45
-41.62
-35.30
-29.35
-24.32
-20.48
-17.79
-16.10
-15.14
-14.66
-14.33
-13.73
-12.42
-10.07
-6.61
-2.32
2.23
6.42
9.80
12.32
14.18
15.62
16.65
17.01
16.25
14.13
10.83
6.94
3.23
0.26
-1.87
-3.43
-4.88
-6.64
-8.92
-11.83
-15.42
-19.71
-24.41
-28.76
-31.50
-31.15
-26.58
-17.52
-4.73
10.22
25.47
39.49
51.40
60.99
68.46
74.13
78.30
81.17
83.01
84.17
85.03
85.92
86.96
88.02
88.79
88.94
88.24
86.64
84.26
81.25
77.67
73.49
68.63
63.06
56.86
50.24
43.49
36.84
30.47
24.36
18.37
12.24
5.66
-1.59
-9.45
-17.43
-24.50
-29.34
-30.63
-27.61
-20.30
-9.64
2.89
15.73
27.59
37.73
45.91
52.17
56.71
59.73
61.44
62.09
61.95
61.33
60.50
59.59
58.66
57.70
56.67
55.55
54.38
53.22
52.07
50.83
49.24
47.01
43.88
39.84
35.13
30.21
25.55
21.40
17.74
14.23
10.42
5.97
0.71
-5.19
-11.37
-17.22
-22.01
-25.02
-25.60
-23.41
-18.59
-11.72
-3.67
4.64
12.49
19.50
25.55
30.63
34.72
37.74
39.64
40.46
40.44
39.95
39.35
38.89
38.59
38.30
37.73
36.63
34.91
32.62
29.96
27.17
24.41
21.71
18.93
15.90
12.44
8.54
4.31
-0.02
-4.22
-8.14
-11.76
-15.23
-18.83
-22.83
-27.34
-32.17
-36.77
-40.35
-42.13
-41.60
-38.66
-33.66
-27.25
-20.20
-13.19
-6.69
-1.00
3.72
7.40
10.06
11.81
12.84
13.41
13.84
14.35
15.10
16.06
17.06
17.83
18.12
17.81
16.94
15.68
14.28
12.91
11.65
10.45
9.16
7.56
5.46
2.81
-0.37
-3.90
-7.54
-11.08
-14.36
-17.34
-20.11
-22.83
-25.73
-29.05
-32.93
-37.28
-41.68
-45.32
-47.25
-46.64
-43.13
-37.02
-29.19
-20.84
-13.04
-6.57
-1.70
1.70
3.99
5.51
6.55
7.27
7.81
8.34
8.98
9.88
11.06
12.42
13.77
14.87
15.52
15.66
15.34
14.67
13.77
12.75
11.65
10.48
9.27
7.95
6.44
4.62
2.37
-0.30
-3.27
-6.36
-9.34
-12.13
-14.79
-17.49
-20.47
-23.89
-27.80
-32.03
-36.16
-39.57
-41.47
-41.15
-38.20
-32.73
-25.41
-17.30
-9.54
-3.00
1.93
5.28
7.33
8.40
8.68
8.27
7.32
6.08
4.92
4.22
4.21
4.86
5.95
7.08
7.91
8.19
7.84
6.93
5.64
4.19
2.83
1.69
0.83
0.13
-0.65
-1.78
-3.43
-5.64
-8.27
-11.05
-13.68
-15.93
-17.75
-19.25
-20.70
-22.44
-24.80
-27.95
-31.83
-36.10
-40.09
-42.95
-43.81
-42.08
-37.66
-30.96
-22.84
-14.34
-6.41
0.27
5.36
8.82
10.81
11.63
11.65
11.26
10.79
10.42
10.22
10.13
10.05
9.92
9.74
9.58
9.50
9.53
9.64
9.69
9.49
8.82
7.59
5.82
3.67
1.38
-0.88
-3.06
-5.31
-7.79
-10.61
-13.70
-16.80
-19.62
-21.94
-23.80
-25.43
-27.23
-29.58
-32.77
-36.73
-41.04
-44.88
-47.22
-47.09
-43.93
-37.81
-29.43
-19.98
-10.69
-2.53
4.01
8.96
12.58
15.12
16.67
17.30
17.15
16.55
15.93
15.66
15.99
16.96
18.34
19.80
21.02
21.76
21.90
21.42
20.46
19.46
18.89
18.91
19.29
19.52
19.11
17.83
15.79
13.22
10.74
8.64
6.70
4.40
1.61
-0.99
-1.93
0.44
7.43
20.50
40.26
65.88
95.13
125.12
152.84
175.12
188.76
190.87
181.18
161.14
132.97
98.95
61.51
23.15
-14.08
-48.51
-78.66
-100.70
-110.27
-104.75
-84.59
-52.75
-13.61
27.87
67.34
90.05
85.93
56.89
15.60
-25.06
-58.44
-83.07
-99.64
-108.86
-112.34
-110.21
-102.83
-91.87
-79.95
-68.92
-58.76
-47.98
-33.45
-13.65
12.85
45.27
79.24
107.40
122.48
120.49
98.97
65.62
31.10
5.20
-7.48
-8.60
-3.85
1.16
3.83
4.33
5.06
6.87
9.18
10.36
8.73
3.54
-4.60
-13.87
-21.84
-26.18
-25.47
-19.08
-7.53
7.35
22.57
34.83
41.30
43.53
42.45
39.36
35.74
32.72
30.78
29.93
30.08
31.38
34.00
37.42
40.55
41.76
39.38
32.25
20.29
4.62
-12.66
-29.05
-42.55
-51.86
-56.65
-57.54
-55.74
-52.50
-48.73
-44.83
-40.78
-36.69
-32.61
-28.80
-25.68
-23.65
-22.88
-23.22
-24.34
-25.87
-27.71
-29.86
-32.30
-34.77
-36.59
-36.75
-34.33
-28.83
-20.50
-10.25
0.79
11.66
21.82
31.14
39.68
47.46
54.31
59.91
63.86
65.73
65.07
61.45
54.46
43.83
29.57
12.08
-7.85
-28.88
-49.32
-67.30
-81.19
-90.08
-94.12
-94.50
-93.06
-91.71
-91.75
-93.62
-96.87
-100.42
-102.86
-102.48
-97.43
-86.17
-68.37
-45.79
-22.57
-4.29
3.98
-0.26
-15.70
-37.74
-60.26
-77.99
-88.14
-90.66
-87.18
-79.70
-69.46
-56.92
-42.23
-25.91
-9.13
6.57
19.85
30.01
37.09
41.64
44.13
44.58
42.50
37.31
28.98
18.42
7.44
-1.82
-7.69
-9.54
-7.92
-4.12
0.44
4.84
8.86
12.82
17.18
22.32
28.24
34.63
41.01
46.73
51.17
53.76
54.23
52.75
49.86
46.31
42.57
38.54
33.64
27.20
19.11
10.09
1.59
-4.86
-8.33
-8.87
-7.25
-4.45
-1.15
2.57
6.98
12.42
18.96
26.34
34.06
41.49
47.88
52.36
53.94
51.62
44.64
32.91
17.26
-0.53
-18.12
-33.16
-44.01
-50.22
-52.40
-51.85
-49.86
-47.25
-44.24
-40.76
-36.70
-32.24
-27.70
-23.34
-19.16
-14.90
-10.30
-5.48
-1.05
1.92
2.41
-0.16
-5.67
-13.36
-22.16
-30.95
-38.79
-44.90
-48.69
-49.75
-48.08
-44.18
-38.95
-33.41
-28.21
-23.40
-18.44
-12.60
-5.30
3.54
13.56
24.15
34.68
44.54
53.09
59.51
62.87
62.45
58.10
50.57
41.41
32.49
25.29
20.44
17.60
15.97
14.75
13.68
12.98
12.99
13.73
14.70
15.07
14.16
11.80
8.46
4.99
2.14
0.20
-1.26
-3.21
-6.90
-13.39
-23.17
-35.80
-49.97
-63.71
-74.98
-82.24
-84.91
-83.35
-78.56
-71.63
-63.32
-53.93
-43.50
-32.12
-20.21
-8.46
2.47
12.13
20.35
27.04
32.07
35.36
36.95
37.03
36.03
34.40
32.37
29.78
26.08
20.94
14.72
8.50
3.68
1.31
1.53
3.43
5.37
5.39
2.15
-4.54
-13.91
-24.60
-35.13
-44.37
-52.10
-59.38
-69.50
-86.19
-112.25
-148.46
-193.21
-242.60
-291.25
-333.71
-365.87
-387.29
-398.77
-401.22
-395.55
-383.27
-366.52
-347.63
-328.55
-310.37
-295.78
-284.99
-275.37
-263.03
-245.18
-221.11
-191.73
-158.75
-123.87
-91.94
-65.53
-44.03
-25.17
-7.42
8.94
22.63
32.11
57.64
103.63
158.95
206.19
235.18
245.70
242.41
230.58
214.17
196.25
175.16
150.36
123.73
98.38
76.88
59.85
46.61
35.89
27.20
17.40
5.05
-8.83
-21.75
-31.46
-36.50
-35.33
-31.32
-25.63
-20.55
-17.16
-15.00
-12.84
-9.78
-5.76
-1.15
3.58
8.86
14.21
19.47
25.00
31.26
38.38
46.07
53.90
61.53
69.42
77.68
86.46
95.85
105.84
116.21
126.60
136.74
146.54
156.52
167.29
179.58
194.15
211.43
231.05
251.44
269.86
282.95
287.99
283.66
270.62
251.11
228.13
204.35
181.46
160.10
140.25
121.86
104.99
89.79
76.31
64.33
53.47
43.32
33.62
24.31
15.40
6.93
-1.16
-8.94
-16.28
-22.83
-27.82
-30.32
-29.55
-25.17
-17.58
-7.86
2.54
12.21
20.20
26.16
30.27
33.00
34.73
35.74
36.16
36.07
35.59
34.84
33.90
32.81
31.63
30.49
29.60
29.12
29.05
29.15
28.99
28.22
26.62
24.24
21.29
17.99
14.51
10.95
7.39
3.92
0.59
-2.62
-5.84
-9.26
-13.02
-17.13
-21.49
-25.96
-30.48
-35.11
-40.02
-45.37
-51.15
-57.04
-62.30
-65.99
-67.14
-65.05
-59.57
-51.12
-40.59
-29.08
-17.63
-7.04
2.21
9.89
15.99
20.59
23.90
26.19
27.79
29.03
30.15
31.23
32.22
32.98
33.41
33.42
33.06
32.35
31.34
30.07
28.54
26.80
24.92
22.96
20.92
18.73
16.27
13.40
10.10
6.44
2.67
-0.92
-4.08
-6.65
-8.68
-10.38
-12.05
-14.07
-16.79
-20.43
-24.95
-29.96
-34.68
-38.10
-39.16
-37.20
-32.13
-24.57
-15.60
-6.52
1.65
8.31
13.38
17.09
19.79
21.71
22.90
23.42
23.35
22.96
22.63
22.69
23.28
24.21
25.08
25.44
25.01
23.83
22.21
20.54
19.07
17.79
16.43
14.70
12.39
9.57
6.51
3.58
1.00
-1.18
-3.12
-5.07
-7.25
-9.72
-12.49
-15.47
-18.59
-21.72
-24.66
-27.04
-28.33
-28.00
-25.65
-21.21
-15.04
-7.80
-0.33
6.60
12.41
16.83
19.78
21.43
22.03
21.86
21.24
20.44
19.64
18.94
18.30
17.64
16.81
15.66
14.06
11.93
9.30
6.34
3.28
0.34
-2.44
-5.19
-8.25
-11.97
-16.55
-21.88
-27.63
-33.34
-38.73
-43.74
-48.60
-53.69
-59.38
-65.96
-73.52
-81.98
-90.98
-99.86
-107.70
-113.33
-115.92
-115.33
-112.23
-107.79
-103.24
-99.48
-96.79
-95.02
-93.55
-91.87
-89.74
-87.12
-83.97
-80.12
-75.23
-69.03
-61.43
-52.14
-41.13
-28.76
-15.65
-2.29
11.05
24.38
37.91
51.90
67.79
86.41
107.32
128.88
149.18
166.75
180.91
191.58
198.97
205.71
213.45
221.86
229.01
233.10
233.46
230.55
225.24
218.54
215.41
219.65
231.96
249.69
268.63
284.65
294.45
295.88
288.49
278.62
272.26
271.75
275.48
280.70
286.08
291.99
299.38
276.80
208.16
99.12
-26.51
-144.42
-241.20
-313.39
-363.02
-394.60
-413.65
-421.17
-416.69
-401.25
-378.38
-352.40
-326.99
-304.87
-287.91
-275.60
-263.61
-248.32
-228.70
-206.67
-185.39
-167.58
-154.80
-147.31
-144.09
-140.97
-134.12
-121.16
-101.79
-77.12
-48.92
-19.16
10.61
39.60
68.82
95.11
113.76
121.40
118.69
109.27
96.67
82.77
67.90
51.99
34.84
17.52
1.92
-10.29
-18.41
-23.25
-26.75
-30.66
-35.32
-39.64
-40.62
-34.89
-20.55
2.05
28.27
51.28
64.26
64.09
50.63
27.58
1.10
-22.85
-40.24
-49.96
-53.21
-52.78
-51.50
-51.46
-53.30
-55.24
-56.37
-56.04
-54.19
-48.46
-38.95
-28.57
-21.32
-19.18
-21.24
-25.25
-28.92
-31.02
-32.84
-34.64
-36.00
-36.03
-33.81
-29.19
-23.19
-17.50
-13.93
-12.66
-13.67
-16.19
-18.68
-19.31
-16.73
-10.67
-1.92
7.94
16.99
23.45
26.32
25.81
23.22
20.26
18.26
17.69
18.01
18.00
16.29
12.12
5.72
-1.83
-9.25
-15.58
-20.36
-23.60
-25.34
-25.49
-23.83
-20.16
-14.58
-7.66
-0.22
6.97
13.51
19.32
24.53
29.10
32.80
35.17
35.86
34.77
32.26
29.07
26.24
24.88
25.88
29.65
35.90
43.69
51.70
58.70
63.97
67.44
69.43
70.16
69.48
66.87
61.85
54.41
45.16
34.94
24.29
12.93
-0.07
-15.81
-34.77
-56.34
-78.91
-100.40
-118.84
-132.92
-142.02
-146.13
-145.60
-141.08
-133.37
-123.40
-112.09
-100.17
-88.11
-76.14
-64.38
-52.96
-42.06
-31.84
-22.34
-13.46
-5.03
3.07
10.80
17.96
24.30
29.58
33.74
36.82
38.89
39.98
40.10
39.31
37.79
35.84
33.77
31.72
29.61
27.17
24.09
20.28
15.93
11.53
7.65
4.73
2.96
2.19
2.06
2.08
1.77
0.82
-0.81
-2.76
-4.27
-4.35
-2.07
2.96
10.43
19.26
27.97
35.20
40.13
42.67
43.32
42.85
41.96
41.13
40.61
40.51
40.89
41.73
42.96
44.47
46.15
48.01
50.19
52.92
56.54
61.21
66.90
73.26
79.72
85.60
90.26
93.17
94.05
92.93
90.15
86.23
81.74
77.14
72.67
68.27
63.49
57.79
50.74
42.11
31.76
19.59
5.49
-10.63
-28.57
-47.81
-67.40
-85.71
-101.22
-113.11
-121.58
-127.51
-132.05
-135.99
-139.75
-143.33
-145.63
-145.48
-142.32
-136.42
-128.43
-119.07
-108.46
-96.77
-84.26
-70.15
-54.06
-36.71
-19.89
-5.39
5.82
14.72
22.86
31.81
44.06
60.95
81.70
103.60
123.56
139.13
149.69
154.53
143.08
109.54
57.55
-0.33
-50.30
-81.78
-94.66
-89.71
-68.87
-35.19
7.82
55.04
99.84
135.05
154.98
156.95
143.25
118.71
89.15
61.21
39.63
25.97
18.64
14.77
8.96
0.07
-10.01
-18.18
-22.12
-22.35
-21.39
-21.94
-25.13
-30.11
-33.83
-33.84
-30.28
-24.92
-20.59
-19.93
-24.18
-32.36
-41.28
-46.54
-45.79
-39.77
-31.62
-25.10
-22.93
-26.02
-33.87
-45.43
-59.02
-73.12
-85.56
-93.90
-96.42
-93.18
-86.22
-78.64
-74.26
-72.66
-71.91
-68.74
-60.33
-45.52
-25.30
-2.13
20.85
40.41
54.44
61.80
63.18
60.13
54.65
48.64
44.10
42.39
43.63
47.42
53.18
61.61
72.21
84.16
95.75
105.03
109.60
106.82
95.04
71.08
36.83
-2.33
-40.10
-75.04
-105.86
-127.92
-136.97
-131.34
-113.83
-90.48
-70.11
-60.79
-66.07
-82.49
-101.48
-113.38
-110.64
-90.18
-53.02
-5.24
44.18
86.08
114.33
126.61
123.98
110.16
86.47
58.87
35.23
21.60
19.52
26.94
39.62
52.11
59.31
57.91
48.30
33.14
16.14
0.81
-10.44
-16.97
-19.72
-20.37
-20.39
-20.01
-19.49
-19.33
-20.03
-21.72
-24.33
-28.06
-33.08
-39.62
-46.59
-52.52
-55.78
-55.03
-49.35
-38.51
-22.94
-3.56
18.10
40.03
59.47
73.62
80.50
79.79
72.94
62.56
51.35
41.10
32.24
24.20
16.14
7.80
-0.41
-7.51
-12.60
-15.40
-15.57
-13.69
-10.99
-8.85
-8.30
-9.65
-12.60
-16.52
-20.80
-25.07
-29.27
-33.23
-36.56
-38.60
-38.78
-36.94
-33.58
-29.71
-26.50
-24.99
-25.70
-28.50
-32.71
-37.25
-40.89
-42.45
-41.01
-36.16
-28.15
-17.89
-6.66
4.14
13.42
20.59
25.62
28.83
30.69
31.59
31.78
31.36
30.51
29.44
28.44
27.76
27.52
27.55
27.54
27.15
26.14
24.47
22.24
19.58
16.55
13.15
9.34
5.19
0.89
-3.25
-7.00
-10.30
-13.34
-16.52
-20.29
-24.98
-30.65
-37.06
-43.64
-49.57
-53.90
-55.68
-54.25
-49.44
-41.70
-31.98
-21.55
-11.60
-2.96
4.03
9.48
13.69
17.03
19.76
22.06
24.09
25.96
27.75
29.44
30.90
31.90
32.22
31.73
30.52
28.86
27.07
25.43
24.04
22.71
21.12
18.95
16.07
12.64
9.01
5.53
2.40
-0.42
-3.20
-6.24
-9.79
-13.90
-18.50
-23.30
-27.85
-31.41
-33.14
-32.20
-28.14
-21.18
-12.17
-2.39
6.95
15.04
21.66
26.90
30.96
33.84
35.42
35.65
34.76
33.30
31.90
31.02
30.70
30.62
30.34
29.51
28.12
26.37
24.57
22.88
21.23
19.42
17.17
14.34
10.92
7.14
3.30
-0.29
-3.37
-5.89
-7.92
-9.79
-11.88
-14.64
-18.37
-23.08
-28.36
-33.38
-37.10
-38.50
-36.94
-32.36
-25.34
-16.87
-8.06
0.15
7.17
12.74
16.82
19.44
20.74
20.87
20.13
18.89
17.58
16.52
15.83
15.44
15.18
14.88
14.49
14.02
13.53
13.06
12.55
11.88
10.92
9.58
7.77
5.48
2.78
-0.25
-3.41
-6.53
-9.43
-12.05
-14.43
-16.75
-19.30
-22.35
-26.03
-30.22
-34.41
-37.76
-39.32
-38.29
-34.38
-27.93
-19.84
-11.22
-3.10
3.84
9.34
13.45
16.29
17.97
18.60
18.30
17.36
16.17
15.15
14.58
14.51
14.77
15.09
15.17
14.88
14.25
13.39
12.46
11.51
10.48
9.22
7.54
5.32
2.56
-0.62
-3.96
-7.19
-10.04
-12.47
-14.57
-16.58
-18.76
-21.37
-24.52
-28.22
-32.27
-36.22
-39.42
-41.07
-40.43
-37.09
-31.17
-23.29
-14.50
-5.88
1.68
7.73
12.15
15.13
16.91
17.72
17.76
17.22
16.35
15.41
14.69
14.39
14.59
15.17
15.91
16.52
16.77
16.57
15.95
15.03
13.96
12.85
11.70
10.44
8.94
7.11
4.92
2.43
-0.23
-2.93
-5.55
-7.98
-10.22
-12.31
-14.42
-16.80
-19.70
-23.30
-27.48
-31.80
-35.48
-37.63
-37.50
-34.72
-29.46
-22.37
-14.43
-6.67
0.09
5.41
9.23
11.79
13.34
14.10
14.15
13.57
12.53
11.39
10.63
10.65
11.60
13.23
14.98
16.19
16.37
15.38
13.49
11.18
8.96
7.12
5.68
4.39
2.90
0.93
-1.56
-4.42
-7.41
-10.25
-12.77
-14.90
-16.74
-18.42
-20.16
-22.21
-24.81
-28.15
-32.17
-36.53
-40.51
-43.12
-43.39
-40.70
-34.99
-26.92
-17.63
-8.37
-0.19
6.33
11.06
14.19
15.99
16.65
16.34
15.29
13.92
12.74
12.22
12.58
13.63
14.92
15.90
16.21
15.82
15.00
14.12
13.39
12.76
11.93
10.51
8.28
5.28
1.85
-1.62
-4.78
-7.52
-9.94
-12.31
-14.94
-18.05
-21.79
-26.19
-31.12
-36.13
-40.48
-43.19
-43.35
-40.45
-34.59
-26.56
-17.52
-8.67
-0.89
5.40
10.15
13.54
15.74
16.93
17.22
16.79
15.84
14.59
13.22
11.82
10.43
9.06
7.76
6.60
5.75
5.36
5.53
6.18
7.07
7.78
7.88
7.03
5.14
2.28
-1.26
-5.16
-9.16
-13.11
-17.00
-20.98
-25.33
-30.29
-35.88
-41.74
-46.98
-50.41
-50.93
-47.94
-41.64
-32.95
-23.18
-13.57
-4.90
2.53
8.75
13.84
17.77
20.43
21.79
22.03
21.61
21.09
20.91
21.24
21.98
22.77
23.26
23.23
22.60
21.52
20.20
18.87
17.68
16.65
15.63
14.34
12.47
9.84
6.46
2.65
-1.22
-4.78
-7.88
-10.65
-13.41
-16.53
-20.29
-24.81
-29.94
-35.29
-40.20
-43.75
-44.88
-42.76
-37.01
-28.07
-17.04
-5.47
5.19
13.95
20.50
25.06
28.12
30.12
31.34
31.93
32.04
31.96
32.04
32.53
33.44
34.47
35.12
34.93
33.69
31.53
28.88
26.22
23.85
21.77
19.73
17.36
14.32
10.55
6.22
1.69
-2.56
-6.20
-9.06
-11.28
-13.20
-15.32
-18.15
-22.03
-27.05
-32.87
-38.73
-43.49
-45.90
-44.96
-40.34
-32.44
-22.39
-11.64
-1.48
7.27
14.34
19.80
23.83
26.53
27.97
28.27
27.75
26.90
26.17
25.92
26.25
27.03
28.00
28.85
29.29
29.13
28.25
26.68
24.54
21.98
19.19
16.24
13.13
9.81
6.28
2.64
-0.91
-4.16
-6.95
-9.29
-11.38
-13.52
-16.03
-19.15
-23.04
-27.65
-32.75
-37.84
-42.15
-44.69
-44.56
-41.21
-34.78
-26.04
-16.24
-6.58
2.05
9.26
15.03
19.42
22.47
24.14
24.50
23.82
22.69
21.75
21.56
22.31
23.81
25.58
27.09
27.90
27.83
26.98
25.57
23.86
22.02
20.10
18.05
15.73
13.07
10.00
6.54
2.79
-1.07
-4.82
-8.33
-11.55
-14.59
-17.63
-20.88
-24.56
-28.80
-33.62
-38.81
-43.77
-47.60
-49.19
-47.61
-42.47
-34.16
-23.75
-12.68
-2.24
6.70
13.86
19.32
23.31
26.03
27.65
28.35
28.40
28.15
27.96
28.07
28.47
28.99
29.39
29.50
29.25
28.70
27.98
27.13
26.09
24.73
22.92
20.62
17.97
15.23
12.64
10.35
8.29
6.26
4.07
1.57
-1.19
-4.12
-7.08
-10.04
-13.02
-16.12
-19.48
-23.25
-27.59
-32.59
-38.07
-43.47
-47.79
-49.85
-48.68
-43.86
-35.85
-25.80
-15.19
-5.36
2.86
9.31
14.25
18.11
21.18
23.58
25.31
26.45
27.19
27.88
28.80
30.05
31.49
32.77
33.53
33.60
33.00
31.94
30.72
29.55
28.48
27.37
25.95
23.94
21.13
17.53
13.45
9.41
6.00
3.54
2.00
0.96
-0.23
-2.10
-4.84
-8.24
-11.86
-15.18
-17.90
-19.95
-21.50
-22.85
-24.38
-26.50
-29.61
-33.87
-39.00
-44.23
-48.31
-49.90
-48.04
-42.45
-33.70
-22.98
-11.77
-1.32
7.54
14.56
19.97
24.21
27.77
30.97
33.88
36.36
38.18
39.10
39.00
37.88
35.81
32.81
28.89
24.11
18.64
12.86
7.33
2.67
-0.70
-2.69
-3.52
-3.59
-3.31
-2.92
-2.48
-1.91
-1.15
-0.23
0.61
1.04
0.70
-0.65
-2.97
-5.91
-8.95
-11.52
-13.34
-14.47
-15.40
-16.83
-19.38
-23.41
-28.86
-35.23
-41.71
-47.22
-50.63
-50.99
-47.79
-41.14
-31.82
-21.12
-10.46
-1.10
6.24
11.39
14.58
16.29
17.03
17.21
17.09
16.81
16.47
16.18
16.03
16.08
16.38
16.89
17.49
18.03
18.39
18.42
18.00
17.07
15.62
13.75
11.59
9.30
7.00
4.71
2.41
0.10
-2.17
-4.34
-6.32
-8.08
-9.65
-11.12
-12.56
-14.05
-15.68
-17.67
-20.22
-23.48
-27.29
-31.05
-33.81
-34.52
-32.47
-27.50
-20.10
-11.24
-2.05
6.55
13.92
19.76
24.04
26.91
28.65
29.70
30.52
31.54
33.01
34.96
37.24
39.71
42.32
45.21
48.58
52.61
57.25
62.23
67.14
71.62
75.58
79.35
83.56
88.91
95.79
104.03
112.89
121.42
128.88
135.19
141.00
147.47
155.76
166.71
180.58
196.96
214.70
231.89
245.79
253.28
251.48
238.53
214.07
179.25
136.25
87.62
35.84
-16.75
-67.94
-115.64
-158.22
-194.96
-226.40
-254.39
-281.76
-311.64
-346.34
-386.10
-427.94
-465.55
-490.64
-495.66
-476.68
-435.34
-378.43
-315.40
-255.06
-202.84
-160.27
-126.08
-98.29
-75.65
-57.91
-45.04
-36.37
-30.27
-24.75
-18.35
-10.71
-2.73
4.03
8.25
9.40
8.03
5.43
3.02
1.65
1.21
0.78
-0.76
-3.99
-8.39
-12.33
-13.69
-10.80
-3.27
7.86
20.45
32.07
40.85
45.97
47.64
46.71
44.25
41.15
37.96
34.95
32.21
29.84
28.00
26.90
26.73
27.56
29.24
31.50
33.93
36.12
37.79
38.79
39.15
39.01
38.51
37.72
36.50
34.59
31.72
27.80
23.00
17.81
12.78
8.32
4.51
1.15
-2.15
-5.79
-9.98
-14.80
-20.15
-25.76
-31.13
-35.46
-37.70
-36.83
-32.24
-23.99
-13.03
-0.84
10.93
20.94
28.51
33.58
36.55
37.91
38.14
37.61
36.63
35.59
34.89
34.82
35.50
36.70
38.03
39.02
39.28
38.68
37.32
35.41
33.18
30.86
28.55
26.24
23.81
21.13
18.05
14.57
10.82
7.10
3.72
0.87
-1.44
-3.45
-5.44
-7.72
-10.56
-14.15
-18.56
-23.68
-29.00
-33.61
-36.22
-35.59
-30.94
-22.33
-10.75
2.18
14.66
25.27
33.24
38.40
41.03
41.60
40.64
38.68
36.24
33.85
32.05
31.18
31.39
32.50
34.05
35.46
36.20
35.97
34.82
33.04
31.05
29.09
27.15
24.93
21.98
17.96
12.79
6.77
0.45
-5.48
-10.47
-14.24
-16.89
-18.88
-20.84
-23.43
-27.10
-31.90
-37.43
-42.83
-46.95
-48.56
-46.75
-41.25
-32.54
-21.81
-10.57
-0.19
8.45
15.06
19.86
23.25
25.58
27.04
27.72
27.71
27.20
26.51
25.94
25.73
25.96
26.54
27.24
27.78
27.90
27.43
26.36
24.83
23.05
21.22
19.45
17.72
15.91
13.83
11.31
8.15
4.24
-0.43
-5.77
-11.57
-17.54
-23.47
-29.30
-35.25
-41.69
-48.93
-56.96
-65.22
-72.66
-77.85
-79.52
-76.92
-70.07
-59.82
-47.44
-34.37
-21.78
-10.45
-0.75
7.26
13.68
18.81
23.02
26.72
30.24
33.75
37.19
40.28
42.72
44.20
44.55
43.73
41.83
39.04
35.59
31.70
27.54
23.14
18.49
13.55
8.34
2.91
-2.63
-8.25
-14.03
-20.04
-26.37
-32.95
-39.54
-45.79
-51.33
-55.79
-58.89
-60.46
-60.42
-58.78
-55.67
-51.30
-45.76
-39.02
-30.84
-20.91
-9.04
4.65
19.61
34.98
49.79
63.19
74.59
83.71
90.52
95.05
97.37
97.52
95.65
92.05
87.21
81.69
76.05
70.71
65.92
61.74
58.20
55.25
52.82
50.77
48.82
46.61
43.73
39.86
34.83
28.59
21.21
12.90
3.90
-5.41
-14.61
-23.28
-31.11
-37.92
-43.71
-48.64
-52.98
-57.05
-61.18
-65.45
-69.63
-73.13
-75.04
-74.58
-71.37
-65.67
-58.38
-50.62
-43.34
-36.99
-31.55
-26.69
-22.20
-18.12
-14.78
-12.57
-11.61
-11.67
-12.23
-12.73
-12.78
-12.37
-11.76
-11.40
-11.69
-12.83
-14.77
-17.14
-19.27
-20.24
-19.06
-14.97
-7.88
1.42
11.37
20.04
25.75
27.50
25.22
19.50
11.33
1.79
-8.10
-17.34
-24.94
-29.98
-31.78
-30.12
-25.32
-18.07
-9.20
0.52
10.50
20.33
29.67
38.18
45.46
51.08
54.70
56.15
55.60
53.55
50.79
48.11
46.00
44.43
42.76
40.06
35.50
28.85
20.69
12.24
4.92
-0.33
-3.41
-5.10
-6.73
-9.40
-13.49
-18.39
-22.68
-24.68
-23.23
-18.10
-10.07
-0.66
8.58
16.62
23.29
29.29
35.74
43.60
53.26
64.50
76.55
88.60
100.05
110.43
119.38
126.89
133.93
142.74
156.37
177.01
204.12
233.29
257.08
267.63
259.83
233.42
192.91
145.31
97.26
52.94
13.77
-20.59
-50.90
-77.84
-102.41
-126.81
-154.68
-189.94
-234.59
-286.70
-339.79
-384.18
-410.61
-413.94
-395.42
-362.24
-324.53
-291.34
-267.57
-253.28
-245.04
-238.55
-230.49
-219.30
-204.60
-186.40
-164.64
-139.45
-111.59
-82.78
-55.39
-31.97
-14.30
-2.88
3.17
5.81
7.44
10.32
16.04
25.24
37.70
52.49
68.33
83.88
98.03
110.04
119.55
126.46
130.77
132.52
131.84
128.92
124.12
117.80
110.32
101.89
92.52
82.06
70.14
56.27
39.98
21.09
0.13
-21.42
-41.10
-55.92
-63.24
-61.65
-51.62
-35.47
-16.70
0.98
14.62
22.51
24.27
20.51
12.62
2.59
-7.00
-13.29
-13.86
-7.71
4.04
18.11
30.06
35.96
33.85
24.43
10.56
-3.98
-15.95
-23.51
-26.40
-25.55
-22.46
-18.82
-16.17
-15.70
-18.03
-23.04
-29.86
-37.15
-43.54
-47.93
-49.82
-49.08
-45.77
-39.94
-31.49
-20.41
-6.95
8.25
24.22
39.96
54.67
67.83
79.15
88.40
95.40
100.22
103.33
105.57
107.86
110.60
113.28
114.55
112.66
106.31
95.29
80.67
64.46
48.90
35.72
25.79
19.01
14.61
11.63
9.30
7.32
5.79
4.96
4.89
5.13
4.75
2.55
-2.40
-10.54
-21.59
-34.75
-48.86
-62.61
-74.52
-82.98
-86.42
-83.63
-74.33
-59.50
-41.30
-22.59
-6.09
6.43
14.45
18.62
20.23
20.66
20.93
21.57
22.77
24.45
26.33
28.04
29.11
29.08
27.61
24.71
20.72
16.27
12.09
8.69
6.25
4.53
3.03
1.16
-1.45
-4.87
-8.85
-12.96
-16.82
-20.20
-23.15
-25.86
-28.73
-32.14
-36.37
-41.44
-46.88
-51.70
-54.43
-53.59
-48.11
-37.84
-23.66
-7.36
8.99
23.55
35.24
43.78
49.56
53.35
55.94
58.07
60.33
63.15
66.80
71.30
76.35
81.33
85.46
88.01
88.65
87.52
85.18
82.25
79.08
75.53
71.04
64.96
57.02
47.61
37.68
28.51
21.15
16.12
13.29
12.09
11.71
11.34
10.21
7.59
2.91
-4.14
-13.29
-23.59
-33.51
-41.36
-45.94
-46.93
-44.96
-41.21
-36.88
-32.73
-29.02
-25.76
-23.13
-21.62
-21.87
-24.28
-28.63
-33.98
-38.91
-42.05
-42.56
-40.40
-36.23
-31.14
-26.25
-22.41
-20.09
-19.34
-19.96
-21.54
-23.64
-25.88
-27.90
-29.52
-30.71
-31.69
-32.83
-34.54
-36.99
-39.96
-42.71
-44.14
-43.16
-39.09
-31.99
-22.73
-12.65
-3.20
4.59
10.22
13.70
15.34
15.53
14.60
12.86
10.62
8.28
6.23
4.82
4.18
4.20
4.56
4.84
4.63
3.72
2.09
-0.07
-2.48
-4.87
-7.09
-9.11
-10.97
-12.74
-14.47
-16.33
-18.51
-21.29
-24.72
-28.56
-32.12
-34.39
-34.35
-31.36
-25.43
-17.29
-8.15
0.66
8.10
13.60
17.11
18.94
19.48
19.13
18.17
16.80
15.22
13.62
12.24
11.26
10.81
10.88
11.34
11.92
12.30
12.14
11.27
9.64
7.44
4.96
2.49
0.20
-1.91
-3.97
-6.18
-8.74
-11.83
-15.49
-19.59
-23.67
-26.98
-28.59
-27.66
-23.76
-17.09
-8.48
0.88
9.77
17.28
22.98
26.85
29.11
30.08
30.08
29.40
28.28
26.99
25.80
24.90
24.30
23.89
23.40
22.58
21.28
19.56
17.66
15.83
14.25
12.85
11.31
9.27
6.50
3.05
-0.70
-4.24
-7.18
-9.47
-11.42
-13.60
-16.53
-20.39
-24.82
-29.00
-31.86
-32.44
-30.18
-25.15
-17.97
-9.62
-1.11
6.72
13.33
18.48
22.06
24.11
24.74
24.19
22.86
21.22
19.76
18.84
18.61
18.95
19.58
20.14
20.40
20.22
19.63
18.76
17.70
16.48
15.03
13.23
10.98
8.27
5.24
2.08
-0.95
-3.65
-5.95
-7.87
-9.62
-11.49
-13.79
-16.82
-20.70
-25.32
-30.23
-34.64
-37.55
-37.98
-35.34
-29.63
-21.53
-12.22
-3.00
5.02
11.27
15.64
18.39
19.91
20.55
20.58
20.22
19.66
19.13
18.77
18.68
18.85
19.23
19.72
20.19
20.51
20.60
20.37
19.80
18.88
17.68
16.26
14.73
13.17
11.66
10.22
8.77
7.16
5.19
2.68
-0.33
-3.66
-6.97
-9.96
-12.54
-14.96
-17.65
-21.08
-25.40
-30.31
-35.02
-38.43
-39.49
-37.55
-32.52
-24.96
-15.85
-6.38
2.40
9.69
15.11
18.64
20.55
21.23
21.09
20.50
19.75
19.11
18.79
18.90
19.43
20.26
21.12
21.75
21.96
21.69
20.97
19.92
18.59
16.99
15.09
12.91
10.51
8.02
5.54
3.08
0.58
-2.06
-4.92
-7.98
-11.15
-14.30
-17.30
-20.01
-22.30
-24.04
-25.17
-25.80
-26.24
-26.89
-28.03
-29.54
-30.87
-31.19
-29.73
-26.15
-20.61
-13.63
-5.75
2.62
11.23
19.75
27.50
33.50
36.76
36.71
33.56
28.30
22.39
17.20
13.66
11.99
11.80
12.35
12.86
12.76
11.78
10.01
7.75
5.40
3.28
1.56
0.28
-0.66
-1.38
-2.05
-2.80
-3.76
-4.99
-6.49
-8.16
-9.81
-11.32
-12.59
-13.62
-14.55
-15.62
-17.12
-19.38
-22.54
-26.41
-30.37
-33.48
-34.63
-33.00
-28.29
-20.92
-11.95
-2.72
5.56
12.14
16.79
19.74
21.41
22.22
22.48
22.41
22.24
22.23
22.64
23.67
25.33
27.41
29.59
31.49
32.75
33.05
32.13
29.88
26.34
21.78
16.64
11.45
6.61
2.37
-1.21
-4.28
-6.97
-9.49
-11.93
-14.35
-16.72
-18.92
-20.78
-22.16
-23.07
-23.74
-24.50
-25.65
-27.19
-28.65
-29.25
-28.06
-24.44
-18.29
-10.11
-0.85
8.42
16.81
23.81
29.30
33.51
36.84
39.75
42.71
46.05
50.02
54.69
60.03
65.97
72.49
79.63
87.45
95.98
105.07
114.36
123.31
131.00
136.22
137.58
133.87
124.48
109.83
91.40
71.46
52.46
36.35
24.18
16.01
11.14
8.47
6.82
5.04
2.14
-2.64
-9.61
-18.41
-27.84
-36.05
-41.16
-41.93
-38.57
-32.95
-28.18
-27.50
-33.09
-44.99
-60.69
-75.59
-84.41
-83.06
-70.29
-48.52
-23.11
-0.55
13.91
18.07
13.27
3.42
-6.76
-13.53
-15.19
-12.17
-6.42
-0.47
3.31
3.27
-1.26
-9.93
-21.56
-34.50
-47.13
-58.06
-66.30
-71.38
-73.41
-73.14
-71.89
-71.14
-71.93
-74.29
-77.08
-78.41
-76.45
-70.34
-60.60
-48.95
-37.66
-28.64
-22.87
-20.24
-19.95
-20.98
-22.46
-23.84
-24.80
-25.05
-24.41
-22.86
-20.68
-18.43
-16.81
-16.32
-17.04
-18.60
-20.40
-21.86
-22.70
-23.03
-23.26
-23.92
-25.44
-27.98
-31.38
-35.22
-38.94
-42.07
-44.40
-46.04
-47.39
-49.02
-51.45
-55.00
-59.59
-64.74
-69.54
-72.92
-73.80
-71.48
-65.80
-57.18
-46.60
-35.33
-24.67
-15.67
-8.99
-4.86
-3.17
-3.62
-5.83
-9.40
-13.79
-18.24
-21.70
-22.89
-20.59
-14.09
-3.72
8.86
20.97
29.65
32.91
30.77
25.55
21.15
21.55
29.25
44.51
65.47
89.34
113.56
136.57
157.70
176.47
192.05
203.15
208.73
208.81
204.97
199.93
196.45
195.98
197.87
199.49
197.34
188.37
171.18
146.37
116.29
84.09
52.85
24.92
1.60
-16.80
-30.67
-40.79
-48.02
-53.34
-57.95
-63.35
-71.19
-82.72
-98.12
-116.26
-134.96
-151.89
-165.51
-175.67
-183.47
-190.61
-198.52
-207.73
-217.72
-227.24
-234.85
-239.48
-240.86
-239.53
-236.58
-233.12
-229.79
-226.48
-222.57
-217.39
-210.82
-203.51
-196.66
-191.41
-188.31
-187.00
-186.42
-185.17
-181.97
-175.61
-164.93
-148.67
-125.79
-95.98
