1502262571.00
64.000000
-0.00
-0.00
-0.00
-0.00
-0.00
-0.00
-0.00
-0.00
-0.00
-0.00
0.00
0.01
0.01
-0.00
-0.03
-0.05
-0.05
0.00
0.13
0.36
0.66
1.01
1.37
1.72
2.06
2.40
2.79
3.24
3.80
4.42
5.06
5.66
6.20
6.68
7.15
7.68
8.31
9.14
10.09
11.04
11.88
12.56
13.14
13.76
14.65
15.96
17.91
20.32
22.90
25.38
27.58
29.57
31.68
34.32
37.81
42.54
48.15
54.10
59.83
64.97
69.58
74.14
79.34
85.71
93.76
103.00
112.62
121.73
129.77
136.75
143.30
150.75
157.77
166.64
177.95
191.79
206.97
220.57
228.25
225.36
208.53
176.87
132.76
80.05
23.07
-34.94
-92.44
-149.16
-205.23
-260.37
-313.74
-363.87
-409.83
-450.91
-486.50
-515.74
-537.23
-549.22
-549.96
-538.37
-514.21
-478.67
-433.88
-382.45
-327.02
-269.84
-212.63
-156.66
-102.95
-52.37
-5.90
35.58
71.43
101.35
125.50
144.38
158.69
169.15
176.37
180.75
182.57
182.07
179.51
175.23
169.65
163.18
156.15
148.81
141.30
133.69
126.02
118.33
110.69
103.16
95.80
88.68
81.83
75.25
68.95
62.95
57.25
51.86
46.78
42.03
37.59
33.45
29.61
26.07
22.81
19.83
17.11
14.67
12.48
10.54
8.83
7.35
6.07
4.97
4.05
3.27
2.62
2.09
1.65
1.30
1.01
0.79
0.61
0.47
0.37
0.29
0.23
0.19
0.16
0.15
0.14
0.15
0.16
0.19
0.21
0.25
0.28
0.32
0.37
0.41
0.46
0.50
0.55
0.60
0.66
0.72
0.78
0.84
0.91
0.99
1.08
1.18
1.28
1.40
1.54
1.69
1.86
2.05
2.26
2.49
2.75
3.03
3.35
3.69
4.07
4.48
4.93
5.42
5.94
6.49
7.09
7.74
8.43
9.18
9.98
10.81
11.65
12.50
13.36
14.25
15.21
16.26
17.43
18.66
19.94
21.18
22.28
23.17
23.73
23.90
23.58
22.69
21.13
18.84
15.77
11.92
7.42
2.52
-2.50
-7.34
-11.75
-15.59
-18.86
-21.61
-23.93
-25.84
-27.27
-28.11
-28.23
-27.62
-26.50
-25.21
-24.13
-23.58
-23.61
-24.03
-24.42
-24.42
-23.82
-22.78
-21.77
-21.38
-22.02
-23.77
-26.25
-28.81
-30.82
-31.88
-32.07
-31.86
-31.88
-32.79
-35.10
-39.18
-44.86
-51.27
-56.57
-58.38
-54.62
-44.50
-29.14
-11.44
4.97
17.14
23.89
25.92
25.04
23.08
20.99
18.77
15.86
11.77
6.56
0.83
-4.57
-8.80
-11.26
-11.52
-9.37
-4.27
3.71
13.94
25.34
36.51
46.13
53.23
57.33
58.50
57.25
54.38
50.70
46.94
43.54
40.59
37.96
35.46
32.97
30.53
28.24
26.24
24.61
23.31
22.24
21.18
19.89
18.14
15.74
12.61
8.88
4.91
1.09
-2.33
-5.36
-8.31
-11.52
-15.19
-19.22
-23.28
-26.98
-30.15
-32.94
-35.77
-39.10
-43.31
-48.52
-54.55
-60.88
-66.59
-70.45
-71.09
-67.45
-59.14
-46.72
-31.55
-15.42
0.00
13.51
24.52
32.95
38.91
42.63
44.40
44.64
43.88
42.67
41.40
40.19
38.92
37.34
35.26
32.72
29.96
27.35
25.24
23.81
22.98
22.45
21.78
20.58
18.67
16.10
13.18
10.25
7.45
4.67
1.61
-2.03
-6.28
-10.90
-15.47
-19.66
-23.32
-26.60
-29.82
-33.32
-37.37
-42.24
-48.01
-54.47
-60.96
-66.17
-68.48
-66.33
-58.99
-46.91
-31.74
-15.70
-0.88
11.43
20.93
28.07
33.58
37.96
41.33
43.56
44.46
43.97
42.26
39.69
36.68
33.72
31.21
29.50
28.71
28.76
29.33
29.95
30.16
29.52
27.75
24.79
20.82
16.19
11.48
7.27
3.94
1.47
-0.54
-2.76
-5.78
-9.80
-14.57
-19.55
-24.14
-28.10
-31.59
-35.12
-39.30
-44.53
-50.81
-57.52
-63.55
-67.51
-67.97
-64.05
-55.58
-43.28
-28.54
-13.07
1.54
14.15
24.17
31.51
36.43
39.32
40.63
40.78
40.15
39.08
37.82
36.48
35.08
33.61
32.09
30.65
29.47
28.71
28.39
28.33
28.09
27.24
25.45
22.68
19.15
15.18
11.19
7.40
3.98
0.90
-1.96
-4.76
-7.66
-10.77
-14.10
-17.55
-21.04
-24.49
-27.88
-31.30
-34.97
-39.20
-44.30
-50.37
-57.01
-63.22
-67.50
-68.28
-64.51
-56.07
-43.91
-29.62
-14.97
-1.33
10.52
20.37
28.23
34.16
38.17
40.23
40.46
39.15
36.86
34.23
31.88
30.27
29.59
29.71
30.26
30.78
30.87
30.29
28.98
27.09
24.86
22.52
20.27
18.15
15.99
13.48
10.26
6.12
1.14
-4.33
-9.77
-14.66
-18.72
-22.07
-25.09
-28.38
-32.43
-37.55
-43.62
-50.16
-56.31
-60.94
-62.94
-61.36
-55.73
-46.23
-33.64
-19.25
-4.59
8.96
20.40
29.27
35.61
39.73
42.02
42.81
42.34
40.82
38.58
36.00
33.50
31.42
29.82
28.55
27.45
26.37
25.35
24.46
23.69
22.83
21.55
19.56
16.76
13.34
9.62
5.90
2.32
-1.20
-4.84
-8.80
-13.21
-18.05
-23.12
-28.07
-32.51
-36.14
-38.99
-41.53
-44.49
-48.63
-54.23
-60.77
-66.89
-70.74
-70.56
-65.35
-55.18
-41.18
-25.21
-9.18
5.34
17.46
26.93
33.90
38.71
41.66
43.00
43.02
42.14
40.83
39.51
38.39
37.41
36.39
35.17
33.80
32.54
31.68
31.35
31.34
31.16
30.24
28.21
25.10
21.25
17.11
13.02
9.13
5.41
1.75
-2.06
-6.15
-10.61
-15.44
-20.46
-25.41
-30.02
-34.16
-37.98
-41.92
-46.46
-51.90
-58.07
-64.13
-68.78
-70.46
-67.92
-60.63
-48.99
-34.26
-18.20
-2.61
11.16
22.33
30.69
36.42
39.91
41.62
42.05
41.69
40.92
40.03
39.09
38.04
36.76
35.18
33.37
31.58
30.06
29.02
28.52
28.43
28.39
27.99
26.83
24.78
21.93
18.59
15.11
11.70
8.33
4.79
0.82
-3.72
-8.74
-13.88
-18.75
-23.03
-26.62
-29.67
-32.52
-35.57
-39.29
-43.93
-49.42
-55.10
-59.67
-61.56
-59.27
-52.02
-40.00
-24.43
-7.11
10.09
25.79
39.25
50.33
59.26
66.34
71.85
76.06
79.36
82.39
86.04
91.23
98.71
108.67
120.65
133.63
146.27
157.28
165.62
170.47
171.28
167.64
159.46
147.10
131.52
114.16
96.66
80.54
66.85
56.07
48.05
41.97
36.49
30.02
21.08
8.96
-5.90
-21.88
-36.75
-48.54
-56.47
-61.36
-65.37
-71.13
-80.71
-94.82
-112.71
-132.56
-152.09
-169.20
-182.16
-189.65
-190.85
-185.49
-174.16
-158.24
-139.74
-120.72
-102.68
-86.13
-70.53
-54.65
-37.06
-16.63
7.11
33.74
61.76
88.70
111.50
127.23
133.92
131.25
120.51
104.11
84.78
64.63
44.68
24.79
3.92
-19.36
-46.33
-77.45
-111.92
-147.37
-180.27
-206.84
-224.23
-231.55
-230.07
-222.60
-212.24
-201.19
-190.13
-178.48
-165.04
-148.92
-129.93
-108.71
-86.31
-63.86
-42.33
-22.45
-4.77
10.28
22.43
31.50
37.62
41.20
42.97
43.84
44.56
45.57
46.83
47.90
48.35
48.04
47.25
46.49
46.18
46.31
46.39
45.73
43.75
40.29
35.68
30.51
25.41
20.74
16.60
12.79
8.94
4.75
-0.04
-5.43
-11.25
-17.19
-22.93
-28.34
-33.56
-39.01
-45.23
-52.58
-60.95
-69.64
-77.29
-82.18
-82.59
-77.34
-66.15
-49.86
-30.31
-9.84
9.26
25.41
37.96
47.16
53.72
58.37
61.44
62.91
62.67
60.79
57.79
54.40
51.37
49.16
47.79
47.00
46.45
45.95
45.44
44.94
44.34
43.33
41.46
38.39
34.11
29.00
23.69
18.81
14.67
11.11
7.60
3.53
-1.47
-7.27
-13.33
-18.93
-23.57
-27.24
-30.47
-34.17
-39.26
-46.32
-55.38
-65.72
-75.96
-84.22
-88.46
-87.00
-79.03
-64.95
-46.28
-25.41
-4.82
13.44
28.26
39.42
47.31
52.54
55.58
56.67
56.00
53.87
50.87
47.75
45.20
43.61
42.94
42.82
42.82
42.67
42.26
41.63
40.68
39.22
37.00
33.86
29.90
25.37
20.59
15.71
10.71
5.49
-0.02
-5.64
-11.12
-16.20
-20.76
-25.01
-29.37
-34.40
-40.58
-48.13
-56.77
-65.68
-73.49
-78.53
-79.22
-74.44
-63.96
-48.54
-29.81
-9.90
9.10
25.62
38.79
48.49
55.03
58.90
60.53
60.28
58.49
55.59
52.07
48.41
44.98
41.99
39.53
37.66
36.42
35.84
35.83
36.12
36.29
35.84
34.41
31.87
28.41
24.34
20.02
15.60
10.95
5.84
0.05
-6.34
-12.90
-18.98
-23.97
-27.63
-30.22
-32.48
-35.29
-39.55
-45.83
-54.23
-64.26
-74.77
-83.92
-89.53
-89.60
-82.91
-69.58
-51.07
-29.79
-8.34
11.19
27.69
40.91
51.18
58.95
64.55
68.16
69.96
70.20
69.24
67.48
65.21
62.62
59.89
57.21
54.85
53.10
52.04
51.58
51.27
50.57
48.98
46.25
42.45
37.86
32.88
27.84
22.90
18.03
13.09
7.92
2.46
-3.22
-8.92
-14.40
-19.46
-24.09
-28.52
-33.21
-38.77
-45.78
-54.52
-64.65
-75.00
-83.63
-88.18
-86.56
-77.74
-62.25
-42.11
-20.25
0.39
17.74
30.99
40.45
47.00
51.46
54.34
55.78
55.84
54.73
52.89
50.82
48.93
47.33
45.90
44.39
42.68
40.81
39.00
37.44
36.15
34.90
33.30
30.95
27.71
23.66
19.08
14.26
9.38
4.42
-0.73
-6.15
-11.81
-17.50
-22.95
-27.90
-32.26
-36.19
-40.13
-44.61
-50.15
-56.86
-64.17
-70.81
-74.96
-74.85
-69.34
-58.35
-42.97
-25.14
-7.05
9.39
23.04
33.55
41.20
46.59
50.29
52.68
53.90
53.94
52.83
50.71
47.82
44.49
41.10
37.98
35.50
33.93
33.40
33.74
34.49
34.98
34.58
32.88
29.88
25.91
21.41
16.78
12.17
7.64
3.08
-1.61
-6.53
-11.78
-17.29
-22.94
-28.48
-33.70
-38.64
-43.59
-49.08
-55.60
-63.19
-71.16
-78.03
-81.83
-80.77
-73.82
-61.24
-44.49
-25.79
-7.44
8.88
22.32
32.81
40.70
46.39
50.13
52.04
52.27
51.08
48.85
46.01
42.92
39.90
37.21
35.02
33.48
32.59
32.17
31.90
31.36
30.17
28.13
25.25
21.73
17.88
13.98
10.17
6.47
2.71
-1.29
-5.71
-10.60
-15.93
-21.44
-26.82
-31.69
-35.78
-39.11
-42.12
-45.59
-50.31
-56.68
-64.24
-71.67
-76.92
-77.92
-73.23
-62.58
-47.05
-28.77
-10.25
6.39
19.81
29.72
36.54
40.93
43.50
44.56
44.26
42.81
40.60
38.15
35.97
34.29
33.06
32.04
31.00
29.83
28.57
27.33
26.11
24.81
23.25
21.22
18.55
15.14
10.95
6.00
0.45
-5.43
-11.22
-16.52
-21.09
-24.89
-28.20
-31.52
-35.49
-40.74
-47.63
-56.07
-65.16
-73.39
-78.77
-79.46
-74.35
-63.46
-47.96
-29.82
-11.21
6.04
20.73
32.30
40.70
46.18
49.14
50.05
49.48
47.98
46.04
44.06
42.19
40.42
38.65
36.84
35.18
33.98
33.57
34.05
35.17
36.32
36.78
36.02
33.91
30.75
27.17
23.77
20.96
18.79
17.07
15.52
13.99
12.55
11.47
11.03
11.56
13.35
16.67
21.67
28.15
35.37
42.15
47.23
50.01
51.02
51.93
54.85
61.33
71.48
83.83
96.01
105.71
111.69
113.95
113.35
110.94
107.31
102.41
95.88
87.47
77.33
66.18
55.06
44.89
36.19
28.82
22.12
15.22
7.39
-1.78
-12.30
-24.02
-36.72
-50.19
-64.14
-78.20
-91.93
-105.17
-118.13
-131.43
-145.80
-161.61
-178.44
-195.00
-209.44
-219.86
-224.94
-224.34
-218.81
-210.07
-200.34
-191.90
-186.46
-184.61
-185.57
-187.26
-186.82
-181.43
-169.25
-149.92
-124.64
-95.78
-66.13
-38.20
-13.83
6.07
21.29
32.24
39.66
44.47
47.62
49.81
51.52
52.95
54.11
54.92
55.34
55.35
54.95
54.23
53.33
52.42
51.65
51.00
50.23
48.95
46.77
43.48
39.25
34.50
29.78
25.48
21.67
18.01
14.03
9.27
3.66
-2.57
-8.86
-14.66
-19.65
-23.84
-27.62
-31.56
-36.30
-42.25
-49.45
-57.37
-64.76
-69.94
-71.09
-66.82
-56.74
-41.65
-23.40
-4.35
13.20
27.67
38.39
45.57
49.90
52.17
52.97
52.61
51.21
48.92
46.00
42.90
40.08
37.91
36.52
35.81
35.50
35.19
34.51
33.21
31.21
28.67
25.84
22.96
20.15
17.25
14.00
10.13
5.57
0.48
-4.75
-9.70
-14.09
-17.82
-21.01
-24.00
-27.27
-31.37
-36.79
-43.69
-51.70
-59.73
-66.11
-69.05
-67.05
-59.54
-47.00
-30.93
-13.35
3.68
18.62
30.61
39.45
45.39
48.84
50.22
49.90
48.26
45.70
42.72
39.79
37.24
35.20
33.61
32.32
31.27
30.48
30.03
29.94
30.03
29.92
29.14
27.24
24.07
19.78
14.83
9.80
5.20
1.18
-2.41
-6.00
-10.06
-14.83
-20.19
-25.67
-30.74
-35.10
-38.92
-42.79
-47.48
-53.66
-61.52
-70.62
-79.80
-87.35
-91.33
-90.08
-82.67
-69.25
-51.08
-30.26
-9.17
10.13
26.29
38.78
47.72
53.60
56.97
58.37
58.27
57.17
55.50
53.64
51.89
50.36
49.07
47.93
46.87
45.84
44.79
43.72
42.61
41.32
39.71
37.59
34.79
31.25
27.05
22.46
17.72
13.03
8.34
3.45
-1.93
-7.87
-14.16
-20.32
-25.81
-30.33
-33.92
-37.05
-40.37
-44.60
-50.22
-57.39
-65.80
-74.51
-81.98
-86.28
-85.56
-78.65
-65.61
-47.84
-27.68
-7.73
9.99
24.36
35.27
43.15
48.65
52.23
54.12
54.48
53.51
51.57
49.18
46.85
44.95
43.56
42.56
41.70
40.82
39.91
39.07
38.26
37.23
35.56
32.88
29.16
24.79
20.40
16.48
13.07
9.65
5.52
0.24
-6.07
-12.73
-18.88
-23.87
-27.67
-30.69
-33.64
-37.21
-41.86
-47.78
-54.77
-62.21
-68.93
-73.35
-73.72
-68.78
-58.20
-42.90
-24.85
-6.45
10.23
23.96
34.45
42.13
47.61
51.30
53.38
53.85
52.82
50.60
47.74
44.79
42.19
40.09
38.49
37.28
36.35
35.57
34.77
33.69
32.01
29.53
26.23
22.24
17.88
13.40
8.99
4.66
0.32
-4.15
-8.86
-13.82
-18.97
-24.12
-29.03
-33.53
-37.60
-41.51
-45.85
-51.33
-58.40
-66.91
-75.81
-83.34
-87.37
-86.11
-78.72
-65.59
-48.24
-28.81
-9.45
8.15
22.98
34.66
43.26
49.04
52.36
53.67
53.48
52.30
50.64
48.93
47.40
46.12
45.02
44.01
43.08
42.26
41.68
41.37
41.16
40.65
39.29
36.60
32.42
26.98
20.86
14.69
8.86
3.42
-1.92
-7.49
-13.44
-19.56
-25.41
-30.57
-34.87
-38.52
-42.06
-46.13
-51.32
-58.01
-66.25
-75.61
-85.10
-93.23
-98.19
-98.40
-92.95
-81.94
-66.49
-48.38
-29.61
-11.88
3.60
16.18
25.65
32.15
36.03
37.80
38.03
37.32
36.24
35.21
34.48
34.13
34.00
33.90
33.66
33.34
33.25
33.85
35.57
38.51
42.36
46.54
50.37
53.45
55.75
57.64
59.68
62.41
66.09
70.76
76.19
82.09
88.15
94.17
100.06
105.71
110.81
114.69
116.30
114.41
108.04
97.00
82.08
65.01
47.97
32.99
21.40
13.74
9.92
9.62
12.57
18.54
27.19
37.78
49.01
59.07
65.89
67.45
62.41
50.49
32.75
11.49
-10.49
-30.81
-48.45
-64.23
-80.35
-99.31
-122.57
-149.48
-177.27
-201.88
-219.43
-227.47
-225.69
-215.71
-200.18
-181.92
-163.15
-145.29
-129.17
-115.23
-103.66
-94.47
-87.30
-81.53
-76.37
-71.16
-65.64
-60.10
-55.28
-51.90
-50.21
-49.51
-48.16
-44.03
-35.26
-21.00
-1.86
20.34
43.21
64.67
83.53
99.62
113.45
125.71
136.76
146.59
154.98
161.85
167.61
173.10
179.35
187.25
197.12
208.69
221.21
233.73
245.18
254.43
260.16
260.90
255.19
241.95
220.71
191.75
156.01
114.89
70.12
23.78
-21.79
-64.25
-101.58
-132.54
-156.97
-175.59
-189.53
-199.60
-205.75
-206.87
-201.23
-187.25
-164.20
-132.79
-95.20
-54.63
-14.61
21.82
52.64
76.89
94.40
105.17
109.07
105.77
95.14
77.69
54.73
28.05
-0.64
-30.26
-60.40
-91.01
-121.70
-151.58
-179.19
-202.97
-221.59
-233.96
-239.03
-235.70
-223.15
-201.39
-171.88
-137.58
-102.35
-69.83
-42.37
-20.50
-3.16
11.31
24.27
36.02
45.77
52.23
54.44
52.57
48.11
43.51
41.32
43.26
49.73
59.85
72.06
84.75
96.81
107.63
116.96
124.64
130.43
134.06
135.23
133.66
128.98
120.73
108.44
92.03
72.14
50.20
28.23
8.21
-8.46
-21.42
-31.24
-39.11
-46.33
-53.83
-62.04
-70.74
-79.36
-87.23
-93.85
-99.08
-103.26
-107.10
-111.53
-117.45
-125.44
-135.49
-146.79
-157.72
-166.29
-170.76
-170.44
-166.10
-159.69
-153.39
-148.49
-144.71
-140.28
-132.83
-120.64
-103.36
-82.09
-58.78
-35.35
-13.16
7.06
24.98
40.32
52.81
62.33
68.94
73.07
75.41
76.60
77.21
77.52
77.63
77.51
77.17
76.59
75.81
74.80
73.50
71.68
69.03
65.10
59.41
51.55
41.43
29.41
16.30
3.22
-8.83
-19.35
-28.54
-37.15
-46.06
-55.77
-66.10
-76.31
-85.51
-93.08
-98.97
-103.52
-107.12
-109.70
-110.55
-108.35
-101.75
-89.85
-72.71
-51.43
-27.83
-4.00
18.32
38.02
54.64
68.14
78.62
86.10
90.59
92.31
91.78
89.89
87.64
85.82
84.82
84.54
84.60
84.62
84.34
83.71
82.79
81.60
80.12
78.43
76.70
75.23
74.34
74.10
74.30
74.45
74.00
72.50
69.75
65.73
60.52
54.16
46.64
37.90
27.85
16.28
2.86
-12.89
-31.37
-52.54
-75.72
-99.53
-122.12
-141.72
-157.11
-167.91
-174.41
-177.24
-177.00
-174.00
-168.35
-160.09
-149.53
-137.26
-124.04
-110.68
-97.75
-85.47
-73.81
-62.57
-51.55
-40.66
-29.95
-19.49
-9.35
0.45
9.86
18.74
26.76
33.52
38.64
41.90
43.42
43.56
42.77
41.45
39.75
37.67
35.06
31.88
28.13
23.89
19.22
14.05
8.16
1.24
-7.03
-16.71
-27.44
-38.22
-47.50
-53.43
-54.40
-49.60
-39.35
-25.09
-8.82
7.49
22.52
35.79
47.41
57.67
66.67
74.20
79.82
83.18
84.25
83.39
81.30
78.78
76.61
75.46
75.86
78.15
82.36
88.06
94.25
99.49
102.24
101.21
95.85
86.46
74.10
60.24
46.37
33.58
22.34
12.60
3.87
-4.46
-12.87
-21.55
-30.35
-38.98
-47.24
-55.19
-63.15
-71.59
-80.77
-90.44
-99.63
-106.80
-110.14
-108.19
-100.33
-87.01
-69.73
-50.53
-31.52
-14.29
0.30
12.05
21.24
28.37
33.92
38.26
41.57
43.97
45.47
46.15
46.13
45.69
45.13
44.77
44.83
45.34
46.19
47.21
48.14
48.73
48.77
48.08
46.62
44.44
41.73
38.72
35.62
32.57
29.64
26.92
24.56
22.74
21.60
20.97
20.35
18.90
15.71
10.30
2.97
-5.02
-11.66
-14.86
-13.07
-5.80
6.20
21.34
37.69
53.57
67.86
80.20
90.74
100.00
108.47
116.38
123.45
128.99
132.08
131.92
128.13
120.93
111.02
99.37
86.83
73.97
60.87
47.14
32.08
15.14
-3.58
-22.99
-40.98
-55.05
-63.20
-64.80
-60.98
-54.26
-47.72
-43.98
-44.61
-50.01
-59.69
-72.76
-88.21
-105.06
-122.44
-139.52
-155.49
-169.57
-181.01
-188.97
-192.65
-191.30
-184.27
-171.13
-151.92
-127.37
-99.02
-69.26
-40.86
-16.36
2.48
15.08
22.05
24.78
24.96
24.13
23.42
23.53
24.79
27.20
30.58
34.60
38.86
43.06
47.00
50.62
53.95
57.05
59.97
62.72
65.21
67.28
68.53
68.46
66.45
62.03
54.88
45.10
33.19
19.83
5.75
-8.55
-22.99
-37.78
-53.15
-69.08
-85.02
-99.79
-111.76
-119.17
-120.68
-115.75
-104.83
-89.19
-70.59
-50.78
-31.09
-12.30
5.27
21.64
36.86
50.88
63.54
74.66
84.14
92.19
99.38
106.64
115.00
125.31
137.83
151.96
166.19
178.27
185.62
185.96
177.83
161.05
136.68
106.86
74.09
40.58
7.76
-23.87
-54.30
-83.54
-111.25
-136.73
-159.29
-178.62
-195.10
-209.59
-222.97
-235.70
-247.46
-257.11
-263.04
-263.65
-257.81
-245.14
-226.16
-202.04
-174.42
-145.02
-115.45
-87.05
-60.91
-37.85
-18.49
-3.05
8.65
17.20
23.50
28.48
32.90
37.12
41.09
44.50
46.90
48.02
47.84
46.68
44.98
43.08
41.04
38.62
35.35
30.88
25.11
18.40
11.46
5.21
0.55
-2.03
-2.58
-1.72
-0.54
-0.19
-1.59
-5.08
-10.30
-16.40
-22.24
-26.77
-29.23
-29.28
-26.96
-22.57
-16.65
-9.84
-2.84
3.82
9.99
15.89
22.02
28.79
36.23
43.84
50.93
56.93
61.89
66.65
72.47
80.57
91.55
105.18
120.56
136.68
152.79
168.62
184.19
199.44
213.90
226.53
235.94
240.78
240.04
233.32
220.69
202.62
179.90
153.64
125.26
96.38
68.40
42.08
17.36
-6.57
-30.83
-56.27
-83.03
-110.50
-137.49
-162.63
-184.78
-203.20
-217.62
-228.06
-234.76
-237.93
-237.69
-233.99
-226.71
-215.90
-201.91
-185.48
-167.61
-149.25
-131.15
-113.71
-97.12
-81.48
-66.97
-53.87
-42.47
-32.84
-24.81
-17.91
-11.60
-5.52
0.26
5.30
8.98
10.78
10.57
8.65
5.50
1.54
-3.24
-9.16
-16.77
-26.48
-38.45
-52.54
-68.26
-84.80
-100.86
-114.65
-124.15
-127.66
-124.36
-114.75
-100.44
-83.58
-66.14
-49.28
-33.37
-18.27
-3.92
9.46
21.40
31.52
39.82
46.71
52.78
58.58
64.35
70.12
75.84
81.51
87.11
92.52
97.31
100.90
102.64
102.23
99.81
95.88
91.07
85.73
79.96
73.62
66.64
59.24
51.94
45.29
39.54
34.36
28.86
21.98
12.88
1.39
-11.88
-25.65
-38.26
-48.07
-53.73
-54.45
-50.06
-41.09
-28.58
-13.93
1.33
15.85
28.57
38.90
46.65
52.12
55.90
58.72
61.20
63.55
65.56
66.70
66.34
64.07
59.69
53.28
44.90
34.58
22.36
8.52
-6.31
-21.09
-34.56
-45.65
-53.67
-58.45
-60.16
-59.23
-56.33
-52.60
-49.92
-51.04
-59.03
-76.14
-102.48
-135.39
-169.88
-200.24
-221.99
-233.09
-234.00
-226.53
-212.31
-192.05
-165.64
-133.30
-96.57
-58.51
-23.02
6.56
28.50
43.10
52.08
57.66
61.69
65.14
68.22
70.79
72.88
74.87
77.41
81.01
85.77
91.20
96.40
100.48
102.83
103.24
101.90
99.18
95.33
90.47
84.47
77.22
68.72
59.25
49.38
39.64
30.27
21.00
11.14
-0.12
-13.13
-27.30
-40.99
-51.84
-57.34
-55.68
-46.21
-29.66
-7.91
16.51
41.01
63.45
82.53
97.72
109.03
116.73
121.12
122.59
121.74
119.46
116.78
114.56
113.08
111.93
110.16
106.73
100.97
92.81
82.78
71.66
60.20
49.00
38.43
28.66
19.73
11.60
4.22
-2.29
-7.69
-11.62
-13.85
-14.50
-14.17
-13.86
-14.73
-17.78
-23.52
-31.72
-41.35
-50.63
-57.42
-59.69
-56.06
-46.32
-31.37
-13.05
6.54
25.52
42.62
57.14
68.80
77.56
83.47
86.74
87.78
87.23
85.82
84.22
82.89
81.96
81.35
80.84
80.25
79.59
79.05
78.96
79.66
81.23
83.47
85.84
87.60
88.10
87.03
84.57
81.39
78.39
76.33
75.46
75.42
75.34
74.21
71.29
66.33
59.73
52.35
45.47
40.56
39.08
42.09
50.01
62.42
78.01
95.00
111.52
126.06
137.69
146.06
151.24
153.59
153.65
152.07
149.45
146.26
142.62
138.53
133.81
128.22
121.48
113.27
103.26
91.36
77.94
63.94
50.60
39.08
29.89
22.65
16.20
9.09
0.07
-11.50
-25.61
-41.75
-59.23
-77.37
-95.65
-113.78
-131.68
-149.38
-166.92
-184.24
-201.12
-217.22
-232.17
-245.66
-257.42
-267.05
-273.77
-276.58
-274.51
-267.19
-255.22
-240.11
-223.79
-207.83
-193.07
-179.51
-166.66
-153.97
-141.06
-127.63
-113.27
-97.41
-79.33
-58.58
-35.32
-10.43
14.41
37.05
55.29
67.47
72.97
72.28
66.85
58.38
48.29
37.37
26.01
14.58
3.80
-5.33
-12.03
-16.16
-18.32
-19.47
-20.19
-20.22
-18.46
-13.55
-4.63
8.21
23.78
40.23
55.63
68.45
77.87
83.71
86.23
85.87
83.14
78.54
72.67
66.19
59.86
54.31
49.81
46.05
42.15
37.00
29.82
20.66
10.55
1.14
-6.03
-10.19
-11.57
-11.14
-10.03
-8.92
-7.85
-6.46
-4.42
-1.80
0.84
2.74
3.31
2.44
0.48
-1.91
-4.08
-5.63
-6.38
-6.41
-5.89
-5.09
-4.41
-4.40
-5.56
-8.11
-11.70
-15.49
-18.50
-20.06
-20.21
-19.60
-19.13
-19.36
-20.29
-21.49
-22.41
-22.91
-23.35
-24.48
-27.04
-31.46
-37.70
-45.31
-53.59
-61.79
-69.29
-75.68
-80.81
-84.79
-87.87
-90.31
-92.35
-94.15
-95.80
-97.20
-97.97
-97.46
-94.88
-89.54
-81.20
-70.12
-56.90
-42.17
-26.26
-9.22
9.01
28.20
47.61
66.01
81.96
94.16
101.76
104.48
102.56
96.70
87.91
77.41
66.46
56.13
47.14
39.71
33.51
27.87
21.99
15.18
7.11
-2.13
-12.05
-21.91
-31.08
-39.19
-46.32
-52.86
-59.28
-65.74
-71.89
-76.87
-79.56
-78.95
-74.53
-66.44
-55.31
-42.14
-28.02
-14.05
-1.24
9.58
17.80
23.22
25.98
26.56
25.62
23.95
22.32
21.52
22.22
24.80
29.30
35.29
41.97
48.41
53.68
57.10
58.13
56.53
52.28
45.78
37.82
29.53
22.01
15.87
10.98
6.50
1.35
-5.19
-12.80
-20.18
-25.34
-26.57
-23.05
-15.15
-4.19
8.25
20.89
33.02
44.28
54.43
63.03
69.46
73.18
73.95
72.09
68.37
63.82
59.42
55.82
53.23
51.50
50.33
49.42
48.56
47.43
45.47
41.83
35.55
26.03
13.33
-1.78
-18.13
-34.65
-50.85
-66.74
-82.55
-98.08
-112.49
-124.40
-132.38
-135.45
-133.52
-127.30
-117.92
-106.42
-93.48
-79.41
-64.35
-48.61
-32.82
-17.79
-4.23
7.53
17.71
26.89
35.84
45.21
55.40
66.44
78.01
89.46
99.99
108.92
116.21
122.83
130.71
142.25
159.48
183.07
211.78
242.42
270.48
291.30
301.29
298.84
284.63
261.17
231.80
199.59
166.49
133.02
98.61
61.98
21.94
-21.98
-68.86
-116.03
-159.21
-193.49
-214.76
-221.36
-214.79
-199.19
-179.71
-160.60
-144.02
-129.98
-117.43
-105.41
-93.65
-82.36
-71.53
-60.58
-48.39
-34.12
-17.72
-0.19
16.75
31.29
42.04
48.13
49.05
44.31
33.42
16.06
-7.59
-36.63
-69.45
-103.95
-137.93
-169.39
-196.66
-218.54
-234.32
-243.88
-247.66
-246.59
-241.90
-234.69
-225.76
-215.43
-203.82
-191.16
-178.12
-165.80
-155.40
-147.77
-143.09
-140.80
-139.92
-139.39
-138.37
-136.15
-132.13
-125.66
-116.35
-104.31
-90.36
-75.91
-62.54
-51.38
-42.73
-36.04
-30.35
-24.67
-18.55
-12.07
-5.72
-0.08
4.52
8.08
10.96
13.69
16.99
21.57
28.26
37.78
50.63
66.74
85.34
105.01
123.98
140.68
154.05
163.84
170.46
174.70
177.30
178.71
179.08
178.34
176.31
172.72
167.15
159.07
147.90
133.30
115.30
94.41
71.42
47.14
22.23
-2.80
-27.26
-50.04
-69.52
-83.90
-91.97
-93.86
-91.29
-87.09
-84.21
-84.47
-87.72
-91.87
-93.60
-89.49
-77.11
-55.74
-26.72
6.53
38.80
64.06
77.00
74.96
59.20
34.82
9.04
-11.51
-23.26
-26.54
-24.63
-21.64
-20.58
-22.39
-26.32
-31.06
-35.55
-39.34
-42.27
-44.03
-43.90
-40.98
-34.62
-24.82
-12.40
1.26
14.60
26.31
35.52
41.63
44.07
42.19
35.30
23.30
7.20
-10.57
-26.42
-36.46
-37.72
-29.06
-11.59
11.73
36.92
60.19
78.99
92.62
102.07
109.30
115.99
122.79
128.98
132.95
132.91
127.50
116.18
99.12
77.30
52.39
26.67
2.68
-17.30
-31.76
-40.11
-42.52
-39.69
-32.64
-22.94
-12.78
-4.83
-1.52
-4.15
-12.44
-24.69
-38.68
-52.43
-64.82
-75.40
-84.03
-90.59
-94.97
-97.24
-97.73
-97.02
-95.73
-94.46
-93.74
-93.87
-94.95
-96.59
-97.97
-97.88
-95.08
-88.68
-78.42
-64.63
-48.17
-30.19
-12.00
5.18
20.42
33.36
44.19
53.47
61.80
69.42
76.12
81.40
84.82
86.29
85.86
83.41
78.28
69.35
55.82
37.90
17.43
-2.70
-19.62
-31.72
-39.34
-44.19
-48.22
-52.53
-56.94
-60.52
-62.50
-63.00
-62.87
-63.03
-63.55
-63.38
-60.56
-53.05
-39.61
-20.25
3.76
30.36
57.34
82.89
105.85
125.72
142.46
156.27
167.29
175.47
180.42
181.53
178.09
169.75
156.61
139.21
118.23
94.32
68.12
40.58
13.33
-11.33
-30.83
-43.25
-48.11
-46.55
-40.95
-34.03
-27.90
-23.69
-21.61
-21.38
-22.60
-25.04
-28.46
-32.65
-37.10
-41.09
-43.75
-44.28
-42.34
-38.32
-33.24
-28.45
-25.03
-23.27
-22.66
-22.24
-21.26
-19.66
-18.07
-17.47
-18.60
-21.60
-26.09
-31.36
-36.75
-41.68
-45.57
-47.66
-47.12
-43.29
-36.10
-26.23
-15.07
-4.27
4.75
11.15
14.72
15.78
14.81
12.24
8.42
3.66
-1.59
-6.64
-10.66
-12.91
-12.99
-11.05
-7.83
-4.39
-1.75
-0.51
-0.73
-1.93
-3.42
-4.70
-5.63
-6.54
-7.99
-10.50
-14.34
-19.29
-24.72
-29.62
-32.74
-32.86
-29.05
-21.03
-9.33
4.86
19.95
34.43
47.28
58.10
66.95
74.12
79.84
84.21
87.30
89.38
90.92
92.64
95.34
99.65
105.90
113.99
123.29
132.62
140.32
144.44
143.20
135.42
120.95
100.76
76.63
50.55
23.98
-2.44
-28.88
-55.70
-82.71
-108.67
-131.36
-148.21
-157.26
-157.93
-151.28
-139.59
-125.48
-111.18
-97.99
-86.43
-76.59
-68.55
-62.52
-58.73
-57.09
-57.02
-57.51
-57.37
-55.74
-52.36
-47.62
-42.38
-37.58
-33.90
-31.55
-30.30
-29.67
-29.21
-28.79
-28.64
-29.29
-31.38
-35.36
-41.29
-48.76
-56.85
-64.29
-69.72
-71.79
-69.49
-62.28
-50.27
-34.29
-15.84
3.16
20.81
35.57
46.58
53.72
57.43
58.50
57.77
56.01
53.82
51.69
50.00
48.97
48.61
48.68
48.77
48.44
47.33
45.25
42.23
38.49
34.33
30.11
26.07
22.33
18.60
14.26
8.50
0.77
-8.74
-18.81
-27.41
-32.39
-32.26
-26.76
-16.89
-4.40
8.84
21.38
32.33
41.20
47.61
51.23
51.76
49.27
44.23
37.58
30.53
24.21
19.44
16.47
15.03
14.44
13.93
12.87
10.90
8.06
4.51
0.47
-3.90
-8.55
-13.51
-18.81
-24.51
-30.73
-37.68
-45.49
-54.01
-62.51
-69.63
-73.62
-72.87
-66.46
-54.61
-38.60
-20.39
-2.04
14.78
28.99
40.03
47.69
51.93
52.93
51.11
47.18
42.09
36.86
32.42
29.36
27.89
27.71
28.18
28.56
28.15
26.62
23.90
20.23
15.91
11.23
6.36
1.43
-3.56
-8.67
-14.20
-20.59
-28.30
-37.52
-47.80
-57.90
-65.96
-69.96
-68.32
-60.48
-47.09
-29.80
-10.80
7.77
24.22
37.61
47.62
54.36
58.17
59.46
58.74
56.61
53.78
50.97
48.70
47.21
46.39
45.94
45.54
44.94
44.03
42.69
40.72
37.78
33.55
27.89
20.98
13.34
5.67
-1.36
-7.36
-12.36
-16.85
-21.63
-27.55
-35.12
-44.15
-53.50
-61.30
-65.32
-63.74
-55.78
-42.04
-24.30
-4.99
13.56
29.67
42.53
52.04
58.43
61.99
62.90
61.41
58.01
53.54
49.08
45.67
43.95
43.94
45.05
46.40
47.09
46.57
44.76
41.94
38.53
34.81
30.85
26.44
21.29
15.22
8.34
1.02
-6.18
-12.71
-18.18
-22.60
-26.33
-30.05
-34.54
-40.49
-48.22
-57.44
-67.17
-75.72
-81.08
-81.45
-75.79
-64.16
-47.80
-28.75
-9.32
8.54
23.54
35.15
43.44
48.74
51.47
52.08
51.04
48.97
46.60
44.61
43.51
43.47
44.25
45.38
46.30
46.59
46.08
44.81
42.97
40.80
38.51
36.21
33.87
31.34
28.34
24.64
20.10
14.78
8.90
2.79
-3.24
-8.99
-14.37
-19.47
-24.53
-30.01
-36.45
-44.30
-53.67
-63.89
-73.48
-80.31
-82.17
-77.54
-66.24
-49.65
-30.27
-10.94
6.07
19.55
29.43
36.33
41.09
44.32
46.36
47.42
47.77
47.80
47.89
48.29
49.04
49.91
50.50
50.40
49.28
47.01
43.72
39.79
35.71
31.92
28.64
25.81
23.11
20.12
16.52
12.20
7.30
2.07
-3.23
-8.44
-13.52
-18.56
-23.71
-29.19
-35.22
-42.01
-49.55
-57.48
-64.93
-70.56
-72.83
-70.54
-63.21
-51.44
-36.70
-20.89
-5.82
7.30
17.96
26.16
32.19
36.34
38.80
39.76
39.49
38.42
37.07
35.99
35.52
35.76
36.48
37.29
37.75
37.52
36.48
34.66
32.20
29.22
25.78
21.87
17.48
12.63
7.41
1.91
-3.79
-9.56
-15.28
-20.75
-25.79
-30.31
-34.38
-38.32
-42.59
-47.68
-53.95
-61.40
-69.45
-76.89
-82.03
-83.05
-78.64
-68.49
-53.52
-35.61
-17.05
0.20
14.94
26.75
35.76
42.25
46.38
48.21
47.87
45.74
42.51
39.05
36.14
34.27
33.50
33.56
33.93
34.11
33.73
32.63
30.84
28.49
25.72
22.60
19.08
15.00
10.22
4.73
-1.26
-7.32
-13.01
-18.00
-22.27
-26.10
-29.99
-34.47
-39.94
-46.59
-54.34
-62.71
-70.68
-76.75
-79.18
-76.46
-67.96
-54.28
-37.18
-19.04
-2.04
12.39
23.80
32.47
38.82
43.21
45.77
46.59
45.95
44.34
42.33
40.31
38.48
36.87
35.52
34.51
33.92
33.73
33.65
33.22
32.03
29.88
26.86
23.19
19.12
14.71
9.89
4.59
-1.17
-7.17
-13.05
-18.47
-23.22
-27.35
-31.11
-34.93
-39.23
-44.38
-50.57
-57.66
-65.17
-72.13
-77.19
-78.87
-75.89
-67.65
-54.52
-37.86
-19.78
-2.45
12.42
24.01
32.35
37.99
41.53
43.34
43.58
42.33
39.92
36.92
34.08
32.01
31.01
30.96
31.46
31.99
32.13
31.63
30.42
28.59
26.28
23.64
20.74
17.61
14.23
10.55
6.58
2.36
-2.01
-6.40
-10.69
-14.81
-18.79
-22.69
-26.59
-30.60
-34.79
-39.35
-44.51
-50.52
-57.35
-64.48
-70.71
-74.33
-73.59
-67.42
-55.89
-40.32
-22.89
-5.94
8.72
20.22
28.51
34.06
37.45
39.07
39.21
38.13
36.28
34.24
32.59
31.65
31.44
31.65
31.87
31.76
31.21
30.28
29.11
27.71
25.95
23.56
20.41
16.51
12.17
7.82
3.83
0.33
-2.80
-5.90
-9.32
-13.19
-17.45
-21.81
-25.96
-29.69
-33.04
-36.27
-39.85
-44.31
-50.01
-56.91
-64.32
-70.95
-75.07
-75.08
-69.94
-59.65
-45.24
-28.47
-11.36
4.36
17.54
27.66
34.63
38.63
39.91
38.91
36.19
32.56
28.97
26.27
25.05
25.42
27.02
29.13
30.99
32.08
32.17
31.38
29.96
28.07
25.74
22.87
19.35
15.26
10.81
6.26
1.86
-2.35
-6.37
-10.27
-14.04
-17.65
-21.09
-24.43
-27.86
-31.56
-35.71
-40.43
-45.81
-51.88
-58.45
-64.87
-69.95
-72.17
-70.06
-62.84
-50.80
-35.33
-18.48
-2.37
11.40
22.01
29.34
33.68
35.49
35.24
33.45
30.71
27.72
25.13
23.41
22.73
22.95
23.73
24.66
25.43
25.86
25.87
25.37
24.28
22.49
19.94
16.69
13.00
9.14
5.37
1.73
-1.87
-5.58
-9.53
-13.64
-17.72
-21.53
-24.92
-27.95
-30.89
-34.17
-38.27
-43.50
-49.89
-56.99
-63.77
-68.78
-70.41
-67.40
-59.37
-46.95
-31.71
-15.59
-0.41
12.59
22.80
30.13
34.70
36.71
36.46
34.43
31.33
28.03
25.34
23.77
23.43
24.03
25.14
26.27
27.11
27.50
27.38
26.74
25.54
23.73
21.26
18.16
14.51
10.44
6.08
1.60
-2.88
-7.21
-11.28
-15.08
-18.57
-21.82
-24.92
-28.01
-31.30
-35.12
-39.81
-45.56
-52.18
-58.87
-64.29
-66.80
-64.96
-58.07
-46.40
-31.22
-14.48
1.76
15.78
26.53
33.66
37.33
38.05
36.47
33.30
29.34
25.37
22.10
19.97
19.08
19.16
19.73
20.25
20.32
19.73
18.50
16.78
14.76
12.56
10.23
7.68
4.78
1.38
-2.56
-6.92
-11.37
-15.48
-18.93
-21.55
-23.53
-25.28
-27.35
-30.31
-34.58
-40.35
-47.49
-55.45
-63.16
-69.12
-71.68
-69.52
-62.10
-50.02
-34.85
-18.61
-3.26
9.91
20.34
28.03
33.19
35.99
36.55
35.11
32.19
28.64
25.42
23.36
22.82
23.63
25.22
26.85
27.95
28.21
27.62
26.33
24.48
22.15
19.35
16.05
12.24
7.96
3.29
-1.54
-6.29
-10.68
-14.55
-17.91
-21.00
-24.25
-28.11
-32.91
-38.73
-45.30
-51.87
-57.21
-59.75
-57.92
-50.61
-37.64
-19.90
0.82
22.35
42.68
60.40
74.75
85.42
92.33
95.49
95.13
91.82
86.51
80.39
74.57
69.68
65.78
62.41
58.91
54.72
49.61
43.71
37.26
30.46
23.27
15.43
6.61
-3.32
-14.23
-25.53
-36.37
-45.73
-52.81
-57.17
-58.99
-58.97
-58.18
-57.69
-58.28
-60.23
-63.18
-66.18
-67.87
-66.80
-61.86
-52.70
-39.93
-25.04
-10.00
3.32
13.61
20.31
23.51
23.60
21.04
16.36
10.16
3.29
-3.23
-8.46
-11.86
-13.36
-13.41
-12.62
-11.54
-10.40
-9.20
-7.92
-6.65
-5.76
-5.69
-6.81
-9.23
-12.75
-16.95
-21.30
-25.34
-28.77
-31.49
-33.57
-35.32
-37.26
-40.02
-44.19
-49.97
-56.89
-63.72
-68.69
-69.94
-66.21
-57.25
-43.93
-28.03
-11.61
3.55
16.23
25.96
32.68
36.60
37.95
37.09
34.59
31.27
28.13
26.08
25.60
26.61
28.45
30.30
31.50
31.87
31.65
31.25
30.89
30.40
29.29
26.95
23.10
17.88
11.86
5.78
0.23
-4.53
-8.62
-12.39
-16.27
-20.66
-25.85
-31.98
-38.89
-45.95
-52.03
-55.71
-55.59
-50.87
-41.61
-28.75
-13.91
1.22
15.14
26.88
35.88
41.93
45.04
45.46
43.70
40.54
36.95
33.92
32.21
32.12
33.39
35.29
36.95
37.68
37.25
35.88
34.03
32.07
30.09
27.83
24.88
20.98
16.14
10.66
4.98
-0.51
-5.55
-10.09
-14.22
-18.23
-22.51
-27.60
-33.92
-41.47
-49.57
-56.78
-61.18
-61.02
-55.32
-44.32
-29.43
-12.76
3.52
17.73
28.94
36.85
41.56
43.32
42.49
39.63
35.56
31.33
27.97
26.26
26.38
27.99
30.30
32.37
33.53
33.46
32.28
30.37
28.15
25.88
23.57
20.97
17.77
13.66
8.57
2.73
-3.37
-9.17
-14.15
-18.09
-21.16
-23.89
-27.00
-31.26
-37.18
-44.74
-53.25
-61.38
-67.35
-69.42
-66.37
-57.89
-44.77
-28.69
-11.69
4.29
17.88
28.41
35.79
40.29
42.29
42.22
40.58
37.97
35.10
32.69
31.31
31.24
32.34
34.16
36.01
37.21
37.28
36.06
33.74
30.75
27.50
24.25
20.97
17.41
13.28
8.46
3.10
-2.38
-7.54
-12.07
-15.97
-19.48
-22.98
-26.87
-31.42
-36.84
-43.13
-50.08
-57.05
-62.90
-66.11
-65.13
-58.98
-47.61
-32.16
-14.59
2.81
18.11
30.09
38.41
43.36
45.57
45.71
44.39
42.14
39.54
37.17
35.53
34.97
35.53
36.93
38.64
40.04
40.61
40.10
38.52
36.12
33.20
30.01
26.63
23.06
19.24
15.11
10.63
5.78
0.57
-4.90
-10.44
-15.74
-20.45
-24.43
-27.83
-31.15
-35.10
-40.38
-47.26
-55.49
-64.04
-71.34
-75.52
-74.99
-68.93
-57.61
-42.45
-25.54
-9.10
5.18
16.42
24.50
29.75
32.59
33.38
32.47
30.33
27.64
25.16
23.56
23.15
23.85
25.22
26.70
27.72
27.96
27.26
25.74
23.62
21.16
18.65
16.17
13.65
10.86
7.52
3.46
-1.29
-6.44
-11.59
-16.33
-20.40
-23.76
-26.63
-29.44
-32.71
-36.90
-42.28
-48.70
-55.46
-61.34
-64.75
-64.19
-58.70
-48.31
-34.13
-18.03
-2.09
11.96
23.17
31.39
36.99
40.42
42.05
42.10
40.77
38.48
35.80
33.40
31.78
31.14
31.38
32.16
33.05
33.64
33.64
32.83
31.12
28.56
25.25
21.41
17.28
13.06
8.90
4.88
0.99
-2.81
-6.60
-10.47
-14.41
-18.35
-22.20
-25.91
-29.56
-33.40
-37.82
-43.13
-49.43
-56.34
-62.87
-67.62
-68.98
-65.74
-57.44
-44.65
-28.86
-12.07
3.75
17.19
27.52
34.72
39.15
41.31
41.72
40.85
39.26
37.52
36.19
35.67
36.03
37.06
38.34
39.44
40.02
39.97
39.27
37.89
35.75
32.75
28.87
24.34
19.62
15.23
11.56
8.66
6.22
3.76
0.80
-2.82
-6.99
-11.30
-15.35
-18.89
-21.93
-24.78
-27.93
-31.93
-37.22
-43.89
-51.48
-58.92
-64.68
-67.12
-64.99
-57.89
-46.44
-32.12
-16.91
-2.69
9.22
18.24
24.40
28.07
29.65
29.54
28.07
25.77
23.29
21.34
20.45
20.75
21.97
23.55
24.85
25.44
25.07
23.73
21.51
18.62
15.37
12.10
9.07
6.37
3.83
1.07
-2.30
-6.45
-11.24
-16.25
-21.01
-25.18
-28.67
-31.59
-34.27
-37.05
-40.27
-44.24
-49.08
-54.56
-59.89
-63.78
-64.63
-61.07
-52.50
-39.44
-23.51
-6.95
8.05
19.95
28.18
33.03
35.30
35.90
35.49
34.48
33.09
31.50
30.03
28.97
28.58
28.87
29.64
30.62
31.55
32.37
33.11
33.77
34.28
34.44
34.14
33.36
32.31
31.23
30.27
29.38
28.37
27.03
25.39
23.66
22.23
21.49
21.59
22.44
23.60
24.49
24.57
23.67
22.20
21.26
22.56
28.18
40.08
59.46
85.99
117.27
148.77
174.59
188.84
187.20
168.01
132.56
84.47
28.83
-28.91
-83.51
-130.38
-166.00
-188.23
-196.84
-193.49
-181.47
-164.66
-146.68
-130.06
-116.06
-104.79
-95.68
-87.96
-80.96
-74.35
-68.16
-62.68
-58.22
-54.93
-52.65
-50.99
-49.47
-47.69
-45.55
-43.24
-41.16
-39.77
-39.49
-40.60
-43.11
-46.66
-50.47
-53.30
-53.71
-50.47
-43.01
-31.69
-17.75
-2.94
11.03
22.89
31.97
38.17
41.70
42.88
42.12
39.85
36.63
33.11
29.98
27.83
26.94
27.18
27.99
28.64
28.52
27.36
25.36
22.99
20.64
18.36
15.79
12.40
7.84
2.27
-3.70
-9.23
-13.70
-16.98
-19.42
-21.72
-24.60
-28.55
-33.66
-39.68
-45.95
-51.49
-55.13
-55.65
-52.19
-44.50
-33.13
-19.35
-4.79
8.99
20.82
30.05
36.45
40.07
41.16
40.04
37.22
33.43
29.49
26.25
24.32
23.94
24.87
26.58
28.38
29.78
30.56
30.85
30.91
30.93
30.79
30.16
28.62
25.99
22.42
18.46
14.78
11.93
10.09
9.03
8.13
6.57
3.63
-1.12
-7.59
-15.08
-22.27
-27.54
-29.40
-26.90
-20.10
-10.01
1.66
13.10
22.91
30.41
35.59
38.80
40.43
40.68
39.69
37.64
34.98
32.41
30.56
29.84
30.24
31.32
32.50
33.33
33.58
33.37
32.90
32.34
31.68
30.79
29.56
28.06
26.58
25.50
25.21
25.94
27.69
30.25
33.20
36.06
38.25
39.18
38.44
36.00
32.32
28.32
25.14
23.61
23.95
25.51
26.96
26.77
23.66
17.05
7.12
-5.33
-19.34
-34.12
-49.24
-64.55
-79.90
-95.01
-109.31
-122.03
-132.39
-139.82
-144.07
-145.25
-143.74
-140.04
-134.65
-127.98
-120.40
-112.27
-103.97
-95.91
-88.35
-81.34
-74.66
-68.00
-61.20
-54.53
-48.73
-44.84
-43.84
-46.15
-51.44
-58.50
-65.42
-70.06
-70.47
-65.46
-54.92
-39.85
-22.04
-3.51
14.07
29.66
42.85
53.60
61.96
67.99
71.83
73.98
75.24
76.69
79.25
83.40
88.97
95.21
101.15
105.91
109.08
110.70
111.12
110.70
109.59
107.66
104.68
100.38
94.66
87.44
78.56
67.78
54.78
39.44
22.01
3.24
-15.67
-33.19
-47.60
-57.11
-59.97
-54.78
-40.89
-18.78
9.65
41.03
70.99
94.78
108.13
108.07
93.59
65.76
27.50
-17.14
-63.77
-108.28
-147.24
-177.97
-198.64
-208.27
-207.07
-196.49
-179.13
-158.23
-136.98
-117.75
-101.80
-89.30
-79.72
-72.32
-66.50
-61.92
-58.47
-56.08
-54.66
-54.07
-54.29
-55.49
-58.02
-62.14
-67.68
-73.71
-78.54
-80.20
-76.98
-68.11
-54.06
-36.29
-16.84
2.40
20.04
35.33
48.00
58.02
65.41
70.31
72.94
73.81
73.55
72.94
72.58
72.75
73.35
74.02
74.39
74.32
74.04
73.98
74.50
75.52
76.45
76.32
74.22
69.74
63.28
55.96
49.30
44.55
42.38
42.59
44.28
46.19
47.11
46.27
43.50
39.29
34.57
30.42
27.66
26.55
26.55
26.44
24.78
20.40
12.93
3.02
-7.86
-17.95
-25.84
-30.89
-33.35
-33.97
-33.54
-32.50
-30.88
-28.53
-25.51
-22.21
-19.18
-16.81
-15.04
-13.31
-11.02
-7.84
-4.11
-0.68
1.50
1.78
0.20
-2.56
-5.56
-8.02
-9.65
-10.78
-12.16
-14.68
-19.05
-25.50
-33.65
-42.45
-50.28
-55.21
-55.46
-49.90
-38.46
-22.28
-3.38
15.87
33.43
47.97
58.98
66.50
70.80
72.20
71.08
67.93
63.52
58.73
54.36
50.86
48.30
46.37
44.72
43.09
41.49
40.02
38.78
37.62
36.14
33.78
30.08
24.85
18.27
10.85
3.19
-4.18
-11.07
-17.56
-24.01
-30.88
-38.50
-46.86
-55.50
-63.43
-69.29
-71.63
-69.31
-61.84
-49.65
-34.05
-16.95
-0.39
13.91
24.92
32.32
36.40
37.73
36.96
34.71
31.62
28.31
25.38
23.29
22.23
22.03
22.29
22.55
22.51
22.06
21.32
20.42
19.34
17.89
15.77
12.68
8.54
3.61
-1.64
-6.68
-11.17
-15.13
-18.77
-22.50
-26.68
-31.64
-37.54
-44.29
-51.35
-57.58
-61.36
-60.97
-55.25
-44.19
-29.02
-11.93
4.77
19.27
30.67
38.92
44.43
47.64
48.87
48.41
46.62
44.09
41.57
39.66
38.63
38.22
37.88
37.06
35.50
33.35
31.06
29.06
27.47
26.02
24.20
21.50
17.65
12.76
7.22
1.56
-3.71
-8.22
-11.85
-14.86
-17.80
-21.46
-26.52
-33.31
-41.44
-49.71
-56.30
-59.30
-57.28
-49.84
-37.78
-22.81
-7.01
7.81
20.50
30.62
38.18
43.27
45.94
46.24
44.39
40.95
36.84
32.97
30.04
28.23
27.25
26.53
25.55
24.11
22.37
20.70
19.41
18.50
17.60
16.15
13.60
9.71
4.58
-1.30
-7.27
-12.73
-17.27
-20.82
-23.60
-26.18
-29.21
-33.34
-38.88
-45.54
-52.34
-57.70
-59.88
-57.53
-50.18
-38.44
-23.88
-8.53
5.69
17.41
26.03
31.55
34.36
34.97
33.88
31.61
28.67
25.61
22.89
20.83
19.50
18.75
18.27
17.72
16.84
15.57
14.03
12.37
10.65
8.70
6.25
3.04
-0.94
-5.40
-9.78
-13.58
-16.56
-18.90
-21.12
-23.84
-27.56
-32.42
-38.21
-44.29
-49.74
-53.36
-53.96
-50.66
-43.22
-32.18
-18.85
-4.87
8.17
19.07
27.21
32.46
35.02
35.20
33.46
30.37
26.62
22.96
20.06
18.28
17.64
17.80
18.24
18.50
18.30
17.62
16.60
15.39
14.03
12.39
10.24
7.34
3.67
-0.61
-5.12
-9.38
-13.04
-16.00
-18.50
-21.07
-24.30
-28.63
-34.15
-40.47
-46.77
-51.90
-54.59
-53.79
-48.91
-40.10
-28.29
-15.03
-2.04
9.24
17.97
24.02
27.64
29.23
29.08
27.48
24.76
21.51
18.42
16.09
14.84
14.58
14.90
15.33
15.52
15.35
14.88
14.17
13.20
11.80
9.77
6.97
3.43
-0.58
-4.61
-8.25
-11.19
-13.45
-15.32
-17.23
-19.58
-22.69
-26.76
-31.84
-37.76
-43.96
-49.37
-52.55
-52.14
-47.30
-38.17
-25.89
-12.19
1.11
12.65
21.66
27.90
31.42
32.39
31.10
28.08
24.09
20.04
16.72
14.61
13.78
13.91
14.52
15.08
15.27
14.96
14.22
13.25
12.15
10.92
9.34
7.13
4.08
0.18
-4.27
-8.81
-12.93
-16.25
-18.67
-20.44
-22.16
-24.62
-28.49
-34.01
-40.75
-47.51
-52.57
-54.21
-51.31
-43.79
-32.60
-19.42
-6.06
5.96
15.75
23.01
27.75
30.21
30.61
29.26
26.61
23.22
19.82
17.04
15.34
14.79
15.14
15.92
16.65
16.96
16.69
15.93
14.81
13.42
11.67
9.39
6.37
2.57
-1.80
-6.31
-10.47
-13.87
-16.40
-18.30
-20.07
-22.42
-25.93
-30.89
-37.01
-43.46
-48.96
-52.04
-51.55
-46.94
-38.50
-27.23
-14.57
-2.01
9.21
18.25
24.74
28.59
30.01
29.31
27.00
23.70
20.06
16.73
14.14
12.50
11.73
11.62
11.87
12.22
12.49
12.62
12.59
12.34
11.76
10.60
8.66
5.81
2.13
-2.03
-6.18
-9.86
-12.85
-15.27
-17.53
-20.18
-23.61
-28.02
-33.22
-38.64
-43.40
-46.40
-46.58
-43.17
-36.01
-25.74
-13.57
-1.09
10.25
19.41
25.90
29.69
31.04
30.36
28.18
25.13
21.91
19.21
17.48
16.85
17.09
17.76
18.39
18.66
18.49
17.97
17.20
16.27
15.12
13.58
11.53
8.91
5.80
2.49
-0.62
-3.07
-4.47
-4.72
-4.03
-2.92
-2.27
-2.93
-5.54
-10.19
-16.24
-22.42
-27.17
-29.08
-27.41
-22.33
-14.76
-6.01
2.64
10.23
16.24
20.50
22.93
23.61
22.65
20.39
17.26
13.82
10.60
7.95
6.03
4.79
3.99
3.35
2.62
1.64
0.42
-0.95
-2.42
-4.10
-6.20
-8.98
-12.54
-16.71
-21.12
-25.32
-29.04
-32.27
-35.27
-38.47
-42.25
-46.85
-52.27
-58.15
-63.77
-67.97
-69.38
-66.76
-59.43
-47.64
-32.65
-16.34
-0.73
12.65
23.03
30.38
35.10
37.74
38.77
38.60
37.70
36.65
36.12
36.65
38.45
41.37
44.85
48.23
50.92
52.64
53.33
53.06
51.77
49.20
44.96
38.64
30.16
19.84
8.42
-3.10
-13.77
-22.89
-30.25
-36.06
-40.87
-45.39
-50.25
-55.86
-62.26
-69.04
-75.29
-79.73
-80.91
-77.64
-69.33
-56.43
-40.34
-23.15
-7.01
6.43
16.39
22.92
26.54
28.01
27.95
26.91
25.39
23.95
23.15
23.37
24.68
26.72
28.86
30.45
31.03
30.50
28.99
26.83
24.32
21.70
19.10
16.58
14.15
11.82
9.51
7.14
4.59
1.82
-1.09
-4.00
-6.80
-9.47
-12.16
-15.11
-18.62
-22.97
-28.37
-34.80
-41.87
-48.72
-53.94
-55.95
-53.42
-45.87
-33.85
-18.97
-3.36
11.03
22.86
31.59
37.24
40.11
40.60
39.21
36.60
33.62
31.18
29.91
29.97
31.04
32.53
33.93
35.00
35.76
36.33
36.69
36.61
35.78
34.01
31.40
28.34
25.26
22.44
19.84
17.12
13.84
9.75
4.90
-0.38
-5.66
-10.64
-15.23
-19.53
-23.76
-28.08
-32.63
-37.51
-42.86
-48.73
-54.89
-60.57
-64.42
-64.87
-60.59
-51.17
-37.40
-21.12
-4.64
9.98
21.50
29.65
34.79
37.54
38.40
37.67
35.57
32.56
29.33
26.71
25.37
25.54
26.93
28.82
30.44
31.22
30.94
29.63
27.52
24.79
21.58
18.02
14.28
10.57
7.07
3.88
0.92
-1.96
-4.91
-7.95
-10.97
-13.83
-16.41
-18.73
-20.94
-23.34
-26.23
-29.97
-34.78
-40.65
-47.13
-53.30
-57.75
-58.97
-55.88
-48.16
-36.51
-22.48
-7.89
5.59
16.92
25.71
32.09
36.36
38.85
39.83
39.55
38.39
36.82
35.31
34.19
33.55
33.28
33.13
32.89
32.44
31.76
30.89
29.80
28.41
26.66
24.46
21.88
19.02
16.08
13.19
10.39
7.63
4.75
1.59
-1.93
-5.73
-9.60
-13.27
-16.51
-19.36
-22.05
-25.01
-28.66
-33.33
-39.01
-45.26
-51.21
-55.56
-56.91
-54.16
-46.87
-35.58
-21.64
-6.92
6.85
18.40
27.20
33.23
36.80
38.25
37.92
36.17
33.52
30.66
28.31
27.06
27.13
28.31
30.04
31.62
32.46
32.26
31.06
29.11
26.69
24.01
21.14
18.10
14.98
11.93
9.17
6.78
4.68
2.62
0.30
-2.46
-5.64
-8.98
-12.17
-14.99
-17.44
-19.73
-22.24
-25.45
-29.65
-34.84
-40.57
-45.84
-49.27
-49.48
-45.50
-37.18
-25.40
-11.74
1.89
13.90
23.35
30.00
34.13
36.16
36.53
35.55
33.58
31.07
28.55
26.52
25.29
24.90
25.13
25.65
26.12
26.27
25.95
25.13
23.83
22.18
20.31
18.36
16.37
14.28
11.95
9.20
5.96
2.37
-1.38
-5.03
-8.44
-11.66
-14.85
-18.19
-21.72
-25.42
-29.24
-33.32
-37.94
-43.35
-49.46
-55.54
-60.19
-61.80
-59.10
-51.71
-40.44
-26.95
-13.22
-0.93
8.91
16.06
20.71
23.23
23.93
23.11
21.13
18.52
15.99
14.22
13.63
14.20
15.46
16.73
17.43
17.29
16.43
15.18
13.87
12.64
11.40
9.90
7.94
5.40
2.29
-1.29
-5.21
-9.31
-13.39
-17.21
-20.57
-23.30
-25.41
-27.11
-28.85
-31.19
-34.69
-39.55
-45.43
-51.26
-55.47
-56.41
-52.94
-44.91
-33.29
-19.84
-6.55
5.01
14.06
20.54
24.81
27.33
28.41
28.19
26.82
24.63
22.16
20.04
18.77
18.52
19.05
19.87
20.44
20.39
19.64
18.35
16.83
15.36
14.05
12.80
11.30
9.20
6.25
2.46
-1.82
-6.03
-9.70
-12.55
-14.76
-16.78
-19.22
-22.57
-27.05
-32.59
-38.78
-44.96
-50.15
-53.23
-53.13
-49.12
-41.15
-29.96
-17.01
-4.01
7.45
16.37
22.43
25.90
27.30
27.18
25.97
23.97
21.54
19.14
17.31
16.49
16.83
18.08
19.58
20.65
20.76
19.87
18.30
16.57
15.02
13.66
12.17
10.08
7.12
3.34
-0.88
-5.06
-8.79
-11.97
-14.78
-17.57
-20.71
-24.53
-29.27
-34.98
-41.46
-48.10
-53.81
-57.26
-57.11
-52.60
-43.82
-31.86
-18.42
-5.36
5.92
14.69
20.86
24.73
26.67
26.99
25.95
23.92
21.44
19.17
17.72
17.43
18.21
19.69
21.24
22.29
22.48
21.76
20.39
18.73
17.08
15.48
13.67
11.30
8.08
4.04
-0.49
-4.94
-8.78
-11.79
-14.12
-16.25
-18.82
-22.42
-27.32
-33.39
-39.98
-46.04
-50.21
-51.21
-48.18
-41.04
-30.57
-18.19
-5.60
5.78
15.03
21.89
26.51
29.18
30.23
29.92
28.55
26.53
24.40
22.71
21.79
21.70
22.18
22.75
22.96
22.48
21.29
19.61
17.75
15.96
14.27
12.46
10.23
7.27
3.56
-0.69
-5.02
-8.92
-12.07
-14.54
-16.74
-19.32
-22.86
-27.65
-33.52
-39.77
-45.32
-48.93
-49.48
-46.24
-39.11
-28.68
-16.14
-3.07
8.96
18.71
25.53
29.33
30.52
29.74
27.71
25.11
22.59
20.66
19.64
19.61
20.33
21.37
22.19
22.39
21.80
20.55
18.91
17.13
15.26
13.09
10.30
6.67
2.22
-2.68
-7.51
-11.76
-15.16
-17.82
-20.17
-22.91
-26.69
-31.80
-37.89
-43.91
-48.30
-49.45
-46.33
-38.89
-28.15
-15.78
-3.51
7.50
16.77
24.45
30.78
35.79
39.17
40.51
39.61
36.81
32.99
29.44
27.45
28.05
31.78
38.54
47.45
56.79
64.20
67.07
63.32
52.17
34.55
12.95
-9.29
-29.12
-44.54
-54.99
-61.10
-64.03
-64.97
-64.80
-64.23
-63.92
-64.57
-66.62
-69.88
-73.34
-75.30
-73.93
-67.99
-57.36
-43.20
-27.50
-12.41
0.42
10.24
17.17
21.82
24.87
26.78
27.70
27.66
26.74
25.25
23.72
22.76
22.75
23.73
25.31
26.86
27.79
27.79
26.96
25.62
24.09
22.40
20.30
17.38
13.42
8.54
3.24
-1.83
-6.21
-9.81
-12.95
-16.11
-19.79
-24.26
-29.57
-35.52
-41.62
-47.01
-50.57
-51.12
-47.80
-40.40
-29.63
-16.89
-3.86
7.94
17.60
24.84
29.89
33.15
34.98
35.56
35.02
33.59
31.68
29.87
28.72
28.57
29.36
30.68
31.92
32.52
32.21
31.01
29.18
27.02
24.77
22.47
20.02
17.21
13.89
10.00
5.66
1.18
-3.12
-6.98
-10.39
-13.50
-16.60
-19.99
-23.91
-28.53
-33.91
-39.89
-45.94
-51.13
-54.16
-53.76
-49.14
-40.35
-28.41
-14.97
-1.84
9.53
18.35
24.48
28.22
30.03
30.40
29.72
28.39
26.81
25.42
24.61
24.60
25.41
26.82
28.45
29.86
30.70
30.78
30.09
28.73
26.89
24.77
22.55
20.37
18.29
16.23
14.00
11.35
8.14
4.39
0.38
-3.54
-7.08
-10.19
-13.01
-15.89
-19.18
-23.17
-28.02
-33.67
-39.72
-45.27
-49.07
-49.75
-46.31
-38.60
-27.48
-14.58
-1.78
9.41
18.21
24.56
28.83
31.46
32.77
32.89
31.95
30.22
28.14
26.18
24.72
23.93
23.77
23.98
24.26
24.29
23.87
22.90
21.40
19.49
17.36
15.16
12.91
10.48
7.65
4.21
0.15
-4.23
-8.46
-12.04
-14.69
-16.52
-17.96
-19.65
-22.19
-25.95
-30.94
-36.72
-42.51
-47.25
-49.79
-49.23
-45.08
-37.53
-27.41
-16.00
-4.73
5.21
13.05
18.54
21.84
23.24
23.08
21.68
19.40
16.72
14.25
12.59
12.18
13.05
14.84
16.86
18.41
18.99
18.49
17.14
15.35
13.51
11.83
10.24
8.53
6.44
3.85
0.74
-2.79
-6.55
-10.34
-13.95
-17.23
-20.12
-22.74
-25.43
-28.63
-32.75
-37.93
-43.87
-49.67
-54.04
-55.56
-53.10
-46.25
-35.51
-22.19
-8.08
5.03
15.84
23.72
28.72
31.26
31.92
31.18
29.43
27.04
24.46
22.21
20.74
20.35
20.96
22.23
23.57
24.41
24.36
23.30
21.36
18.80
15.92
12.97
10.11
7.36
4.65
1.82
-1.32
-4.83
-8.59
-12.32
-15.67
-18.39
-20.51
-22.35
-24.38
-27.09
-30.79
-35.52
-40.99
-46.55
-51.17
-53.63
-52.80
-47.99
-39.33
-27.77
-14.87
-2.32
8.55
17.00
22.89
26.45
28.09
28.19
27.13
25.36
23.36
21.67
20.75
20.83
21.86
23.46
25.00
25.85
25.56
24.04
21.60
18.74
15.91
13.34
10.91
8.30
5.21
1.52
-2.57
-6.66
-10.27
-13.04
-14.90
-16.10
-17.18
-18.82
-21.61
-25.91
-31.65
-38.27
-44.77
-49.92
-52.42
-51.29
-46.11
-37.18
-25.49
-12.51
0.23
11.50
20.53
27.07
31.21
33.19
33.32
31.98
29.67
27.07
24.96
24.01
24.55
26.48
29.27
32.11
34.28
35.38
35.55
35.38
35.69
37.08
39.63
42.71
45.15
45.52
42.70
36.13
26.08
13.47
-0.36
-14.03
-26.49
-37.25
-46.40
-54.38
-61.74
-68.74
-75.16
-80.27
-83.09
-82.62
-78.27
-70.02
-58.44
-44.56
-29.67
-15.06
-1.86
9.06
17.19
22.33
24.64
24.62
22.98
20.57
18.24
16.64
16.10
16.67
18.05
19.78
21.33
22.23
22.21
21.18
19.20
16.42
13.01
9.06
4.61
-0.27
-5.50
-10.79
-15.75
-19.97
-23.18
-25.38
-26.94
-28.46
-30.66
-34.04
-38.73
-44.36
-50.08
-54.71
-57.03
-55.99
-51.04
-42.28
-30.53
-17.17
-3.75
8.34
18.20
25.43
30.07
32.36
32.63
31.25
28.77
25.86
23.29
21.70
21.38
22.21
23.71
25.22
26.18
26.25
25.39
23.80
21.83
19.74
17.63
15.41
12.83
9.69
5.98
1.90
-2.21
-6.11
-9.75
-13.38
-17.42
-22.26
-28.11
-34.86
-42.01
-48.64
-53.52
-55.38
-53.28
-46.95
-37.01
-24.83
-12.07
-0.25
9.65
17.18
22.29
25.09
25.81
24.79
22.58
19.96
17.72
16.44
16.29
16.97
17.95
18.67
18.82
18.47
17.90
17.47
17.31
17.23
16.77
15.40
12.77
8.95
4.39
-0.32
-4.64
-8.34
-11.54
-14.59
-17.89
-21.84
-26.68
-32.49
-39.07
-45.87
-51.93
-55.96
-56.72
-53.33
-45.74
-34.70
-21.65
-8.23
4.16
14.65
22.87
28.81
32.65
34.59
34.88
33.95
32.37
30.84
29.94
29.98
30.82
31.98
32.83
32.87
31.93
30.26
28.24
26.23
24.34
22.34
19.80
16.35
11.86
6.59
1.04
-4.22
-8.80
-12.63
-15.94
-19.15
-22.71
-26.97
-32.11
-38.01
-44.24
-49.96
-54.00
-55.12
-52.34
-45.30
-34.54
-21.36
-7.47
5.45
16.21
24.28
29.70
32.86
34.23
34.18
33.03
31.12
29.00
27.25
26.45
26.83
28.18
29.81
30.96
31.03
29.91
27.95
25.65
23.45
21.35
19.05
16.07
12.13
7.27
1.89
-3.39
-8.03
-11.74
-14.57
-16.92
-19.41
-22.70
-27.30
-33.34
-40.37
-47.33
-52.71
-54.90
-52.72
-45.85
-34.96
-21.55
-7.45
5.76
16.98
25.75
32.00
35.85
37.50
37.22
35.49
32.96
30.39
28.44
27.53
27.73
28.75
30.11
31.22
31.62
31.07
29.66
27.68
25.46
23.16
20.69
17.73
14.00
9.46
4.45
-0.44
-4.65
-7.92
-10.46
-12.87
-15.89
-20.15
-25.88
-32.82
-40.11
-46.54
-50.68
-51.33
-47.79
-40.12
-29.18
-16.35
-3.18
8.90
18.91
26.31
30.99
33.15
33.25
31.92
29.85
27.70
25.99
25.00
24.73
25.05
25.66
26.22
26.44
26.06
24.99
23.29
21.18
18.92
16.70
14.57
12.39
9.90
6.88
3.29
-0.67
-4.65
-8.28
-11.36
-13.96
-16.44
-19.26
-22.88
-27.52
-33.07
-39.00
-44.36
-47.94
-48.53
-45.29
-38.05
-27.48
-14.88
-1.87
10.10
20.06
27.62
32.83
35.97
37.37
37.29
35.99
33.80
31.18
28.64
26.61
25.34
24.72
24.40
23.88
22.78
20.95
18.53
15.88
13.35
11.20
9.44
7.86
6.13
3.94
1.18
-2.03
-5.33
-8.32
-10.71
-12.51
-14.02
-15.73
-18.18
-21.76
-26.56
-32.36
-38.56
-44.15
-47.86
-48.41
-44.98
-37.54
-26.99
-14.91
-3.04
7.22
15.20
20.81
24.33
26.07
26.26
25.11
23.04
20.58
18.35
16.86
16.31
16.56
17.26
17.99
18.43
18.40
17.96
17.23
16.37
15.45
14.37
12.92
10.85
8.07
4.72
1.15
-2.22
-5.18
-7.75
-10.21
-12.86
-15.87
-19.24
-22.91
-26.82
-30.96
-35.19
-39.01
-41.54
-41.66
-38.53
-31.94
-22.58
-11.77
-1.00
8.55
16.25
21.98
25.81
27.83
28.11
26.76
24.21
21.13
18.35
16.57
16.11
16.77
17.94
18.88
18.97
18.02
16.20
14.02
11.99
10.38
9.09
7.73
5.86
3.25
-0.04
-3.71
-7.43
-11.03
-14.49
-17.87
-21.22
-24.58
-28.10
-32.02
-36.60
-41.73
-46.77
-50.47
-51.35
-48.26
-40.96
-30.34
-18.06
-5.95
4.57
12.84
18.88
23.02
25.56
26.61
26.24
24.70
22.51
20.45
19.23
19.21
20.22
21.68
22.94
23.50
23.25
22.40
21.31
20.25
19.31
18.43
17.42
16.09
14.25
11.78
8.68
4.98
0.76
-3.92
-9.07
-14.80
-21.15
-28.08
-35.38
-42.69
-49.49
-55.09
-58.70
-59.49
-56.81
-50.46
-40.84
-28.97
-16.28
-4.18
6.27
14.51
20.45
24.31
26.33
26.72
25.69
23.55
20.77
17.95
15.61
14.03
13.16
12.66
12.10
11.21
9.96
8.54
7.14
5.78
4.29
2.40
-0.14
-3.37
-7.14
-11.09
-14.83
-18.01
-20.44
-22.20
-23.63
-25.22
-27.48
-30.76
-35.04
-39.80
-44.10
-46.77
-46.71
-43.20
-36.17
-26.25
-14.65
-2.83
7.85
16.44
22.57
26.27
27.80
27.53
25.86
23.31
20.48
18.05
16.51
16.01
16.33
16.93
17.25
16.87
15.74
14.07
12.16
10.20
8.21
6.01
3.38
0.20
-3.39
-7.08
-10.48
-13.30
-15.48
-17.20
-18.77
-20.56
-22.87
-25.90
-29.66
-33.89
-38.00
-41.01
-41.83
-39.51
-33.66
-24.64
-13.60
-2.09
8.37
16.74
22.61
26.07
27.52
27.35
25.90
23.48
20.55
17.69
15.49
14.34
14.30
15.07
16.14
17.03
17.44
17.29
16.61
15.41
13.66
11.24
8.05
4.10
-0.40
-5.11
-9.63
-13.66
-17.11
-20.13
-23.05
-26.28
-30.00
-34.11
-38.04
-40.84
-41.44
-38.96
-33.04
-24.05
-12.98
-1.25
9.74
18.94
25.79
30.15
32.21
32.28
30.80
28.25
25.21
22.19
19.61
17.64
16.25
15.25
14.45
13.65
12.69
11.38
9.57
7.14
4.05
0.38
-3.68
-7.88
-11.96
-15.69
-18.91
-21.60
-23.92
-26.19
-28.89
-32.45
-37.04
-42.34
-47.49
-51.17
-52.00
-48.98
-41.93
-31.60
-19.44
-7.16
3.79
12.58
19.00
23.29
25.84
26.99
26.93
25.83
23.96
21.71
19.49
17.62
16.26
15.36
14.78
14.29
13.72
12.97
11.97
10.67
8.94
6.63
3.58
-0.22
-4.59
-9.18
-13.57
-17.44
-20.68
-23.51
-26.34
-29.70
-33.97
-39.17
-44.81
-49.96
-53.35
-53.74
-50.31
-42.94
-32.30
-19.71
-6.71
5.30
15.39
23.06
28.21
30.95
31.58
30.58
28.63
26.51
24.83
23.94
23.76
23.93
24.01
23.75
23.18
22.56
22.12
21.92
21.75
21.16
19.69
17.12
13.52
9.31
5.04
1.18
-2.03
-4.67
-7.05
-9.56
-12.54
-16.27
-20.83
-26.10
-31.53
-36.20
-38.84
-38.24
-33.71
-25.43
-14.44
-2.35
9.22
19.07
26.61
31.75
34.65
35.53
34.64
32.40
29.44
26.59
24.54
23.64
23.77
24.42
24.95
24.96
24.31
23.17
21.82
20.42
18.92
17.12
14.83
11.98
8.70
5.26
1.96
-1.02
-3.60
-5.83
-7.85
-9.93
-12.45
-15.80
-20.24
-25.61
-31.27
-36.06
-38.65
-37.92
-33.39
-25.43
-15.18
-4.14
6.22
14.86
21.28
25.49
27.74
28.39
27.78
26.28
24.29
22.26
20.65
19.74
19.55
19.83
20.17
20.25
19.89
19.18
18.26
17.25
16.04
14.42
12.16
9.20
5.67
1.88
-1.81
-5.14
-8.04
-10.59
-13.03
-15.68
-18.82
-22.66
-27.16
-31.91
-36.12
-38.72
-38.67
-35.30
-28.62
-19.36
-8.78
1.71
10.93
18.13
23.03
25.72
26.46
25.57
23.50
20.74
17.84
15.34
13.66
13.00
13.29
14.26
15.50
16.53
16.95
16.46
14.96
12.57
9.52
6.18
2.89
-0.06
-2.46
-4.25
-5.54
-6.60
-7.87
-9.81
-12.75
-16.71
-21.35
-25.95
-29.61
-31.35
-30.35
-26.19
-18.97
-9.43
1.18
11.34
19.76
25.71
29.12
30.48
30.44
29.51
27.92
25.78
23.24
20.63
18.39
16.86
16.11
15.89
15.73
15.22
14.16
12.59
10.70
8.67
6.56
4.33
1.87
-0.85
-3.77
-6.82
-9.90
-13.05
-16.38
-20.11
-24.40
-29.24
-34.27
-38.76
-41.72
-42.08
-39.13
-32.77
-23.72
-13.24
-2.83
6.29
13.40
18.26
20.94
21.63
20.54
18.09
14.94
11.89
9.66
8.58
8.56
9.14
9.80
10.23
10.33
10.20
9.90
9.37
8.43
6.93
4.80
2.16
-0.80
-3.83
-6.76
-9.49
-12.07
-14.63
-17.40
-20.61
-24.42
-28.67
-32.88
-36.28
-38.00
-37.28
-33.77
-27.62
-19.47
-10.26
-1.05
7.19
13.70
18.04
20.09
20.09
18.59
16.34
14.12
12.51
11.80
11.91
12.57
13.46
14.33
15.09
15.70
16.14
16.27
15.94
14.99
13.37
11.07
8.21
4.96
1.50
-1.95
-5.20
-8.15
-10.82
-13.40
-16.22
-19.55
-23.57
-28.04
-32.35
-35.56
-36.62
-34.71
-29.58
-21.72
-12.28
-2.73
5.60
11.90
16.09
18.62
20.11
21.04
21.54
21.45
20.53
18.70
16.14
13.24
10.35
7.66
5.16
2.64
-0.01
-2.72
-5.30
-7.48
-9.19
-10.54
-11.84
-13.34
-15.11
-16.96
-18.55
-19.61
-20.14
-20.41
-20.91
-22.13
-24.37
-27.61
-31.48
-35.19
-37.78
-38.18
-35.66
-30.02
-21.78
-12.01
-2.08
6.76
13.70
18.42
21.00
21.72
20.94
19.02
16.42
13.65
11.27
9.68
9.03
9.24
9.98
10.89
11.67
12.12
12.12
11.57
10.34
8.41
5.89
3.03
0.08
-2.69
-5.21
-7.56
-9.86
-12.14
-14.35
-16.38
-18.26
-20.19
-22.56
-25.67
-29.51
-33.54
-36.75
-37.97
-36.34
-31.59
-24.23
-15.29
-5.97
2.75
10.28
16.42
21.11
24.37
26.12
26.42
25.45
23.63
21.55
19.77
18.68
18.43
18.91
19.76
20.53
20.79
20.26
18.93
16.96
14.63
12.13
9.54
6.80
3.86
0.75
-2.33
-5.16
-7.50
-9.30
-10.70
-11.98
-13.53
-15.64
-18.57
-22.38
-26.79
-31.15
-34.49
-35.80
-34.29
-29.73
-22.51
-13.55
-3.94
5.30
13.44
20.03
24.83
27.73
28.70
27.92
25.80
23.08
20.58
19.00
18.68
19.50
20.95
22.44
23.48
23.88
23.66
22.97
21.86
20.34
18.34
15.82
12.82
9.43
5.76
1.93
-1.90
-5.57
-8.92
-11.90
-14.52
-16.94
-19.40
-22.13
-25.30
-29.00
-33.15
-37.52
-41.56
-44.44
-45.22
-43.08
-37.69
-29.41
-19.32
-8.86
0.55
7.92
12.94
15.80
16.98
16.86
15.67
13.55
10.84
8.16
6.32
6.02
7.46
10.24
13.47
16.15
17.56
17.52
16.28
14.35
12.12
9.72
7.12
4.19
0.97
-2.36
-5.51
-8.20
-10.39
-12.18
-13.86
-15.66
-17.74
-20.15
-23.01
-26.52
-30.90
-36.14
-41.70
-46.52
-49.11
-48.20
-43.16
-34.41
-23.25
-11.36
-0.24
9.22
16.68
22.21
25.87
27.68
27.69
26.16
23.69
21.09
19.15
18.32
18.58
19.56
20.69
21.46
21.60
21.09
20.09
18.86
17.61
16.42
15.15
13.55
11.32
8.31
4.63
0.59
-3.31
-6.70
-9.41
-11.59
-13.59
-15.90
-18.93
-22.88
-27.71
-33.05
-38.25
-42.40
-44.51
-43.70
-39.53
-32.19
-22.47
-11.59
-0.89
8.52
15.86
20.79
23.31
23.69
22.42
20.09
17.36
14.84
12.96
11.94
11.77
12.23
13.05
13.88
14.41
14.43
13.85
12.71
11.15
9.30
7.17
4.67
1.65
-1.93
-5.91
-9.96
-13.71
-16.93
-19.68
-22.30
-25.23
-28.85
-33.32
-38.49
-43.92
-48.92
-52.59
-54.00
-52.35
-47.30
-39.12
-28.78
-17.64
-7.14
1.72
8.44
13.04
15.83
17.14
17.32
16.75
16.03
15.88
17.04
19.97
24.59
30.20
35.71
40.04
42.44
42.79
41.47
39.07
36.14
32.88
29.15
24.69
19.34
13.19
6.62
0.16
-5.71
-10.71
-14.84
-18.29
-21.39
-24.52
-27.98
-31.92
-36.22
-40.41
-43.68
-45.01
-43.50
-38.67
-30.73
-20.59
-9.62
0.81
9.66
16.47
21.20
24.01
25.05
24.40
22.19
18.79
14.87
11.25
8.70
7.56
7.66
8.43
9.15
9.30
8.74
7.67
6.46
5.34
4.26
2.89
0.81
-2.22
-6.08
-10.36
-14.48
-18.03
-20.86
-23.15
-25.23
-27.43
-30.05
-33.26
-37.21
-41.93
-47.23
-52.51
-56.72
-58.60
-56.97
-51.29
-41.87
-29.81
-16.67
-3.92
7.35
16.63
23.83
29.06
32.52
34.42
35.12
35.13
35.08
35.48
36.65
38.57
40.91
43.15
44.68
45.02
43.97
41.67
38.57
35.25
32.10
29.20
26.27
22.84
18.57
13.39
7.61
1.81
-3.45
-7.82
-11.25
-14.02
-16.60
-19.50
-23.21
-27.98
-33.82
-40.29
-46.58
-51.52
-53.82
-52.40
-46.71
-36.99
-24.34
-10.41
3.02
14.59
23.62
30.06
34.26
36.69
37.62
37.27
35.87
33.87
31.93
30.76
30.83
32.14
34.22
36.28
37.57
37.63
36.43
34.25
31.48
28.50
25.52
22.55
19.44
15.98
12.08
7.79
3.35
-0.91
-4.75
-8.17
-11.39
-14.76
-18.60
-23.11
-28.36
-34.34
-40.93
-47.80
-54.21
-59.00
-60.80
-58.54
-51.80
-41.13
-27.86
-13.71
-0.31
11.15
19.98
25.94
29.13
29.91
28.86
26.79
24.57
23.01
22.64
23.59
25.60
28.08
30.35
31.82
32.17
31.47
30.01
28.18
26.21
24.09
21.56
18.35
14.34
9.76
5.04
0.67
-3.04
-6.16
-8.97
-11.89
-15.32
-19.56
-24.83
-31.18
-38.40
-45.79
-52.17
-56.04
-56.09
-51.58
-42.76
-30.83
-17.57
-4.74
6.42
15.28
21.83
26.29
28.91
29.85
29.31
27.72
25.73
24.09
23.45
24.04
25.60
27.57
29.29
30.27
30.37
29.72
28.55
27.05
25.28
23.18
20.64
17.61
14.09
10.18
6.04
1.85
-2.21
-5.99
-9.42
-12.58
-15.64
-18.91
-22.73
-27.37
-32.91
-39.02
-44.98
-49.66
-51.80
-50.36
-44.91
-35.79
-24.12
-11.47
0.66
11.14
19.48
25.68
30.03
32.81
34.25
34.53
33.93
32.87
31.87
31.34
31.48
32.18
33.13
33.96
34.38
34.29
33.73
32.78
31.48
29.78
27.55
24.70
21.22
17.24
13.03
8.85
4.91
1.22
-2.35
-6.08
-10.13
-14.57
-19.31
-24.27
-29.41
-34.84
-40.77
-47.31
-54.29
-61.13
-66.74
-69.87
-69.35
-64.59
-55.85
-44.20
-31.18
-18.37
-6.89
2.76
10.58
16.77
21.44
24.62
26.35
26.85
26.64
26.31
26.37
26.99
28.04
29.19
30.19
30.94
31.50
31.90
32.08
31.81
30.78
28.83
26.05
22.77
19.46
16.52
14.12
12.15
10.23
7.98
5.14
1.80
-1.72
-4.98
-7.69
-9.87
-11.89
-14.28
-17.57
-22.13
-28.02
-34.98
-42.36
-49.11
-53.87
-55.26
-52.27
-44.72
-33.37
-19.79
-5.86
6.72
16.84
24.07
28.48
30.47
30.56
29.34
27.49
25.68
24.52
24.33
25.16
26.75
28.67
30.44
31.66
32.12
31.74
30.60
28.82
26.57
24.01
21.21
18.27
15.25
12.16
8.98
5.76
2.58
-0.47
-3.28
-5.87
-8.36
-10.98
-14.00
-17.74
-22.39
-28.06
-34.72
-42.04
-49.32
-55.47
-59.12
-59.03
-54.45
-45.48
-33.11
-19.02
-5.10
7.09
16.55
23.01
26.71
28.19
28.01
26.68
24.65
22.41
20.48
19.37
19.39
20.56
22.58
24.93
27.05
28.56
29.27
29.19
28.37
26.83
24.54
21.56
18.01
14.21
10.43
6.90
3.65
0.53
-2.60
-5.84
-9.14
-12.39
-15.48
-18.43
-21.40
-24.64
-28.42
-33.02
-38.66
-45.39
-52.88
-60.24
-66.02
-68.53
-66.36
-58.97
-47.00
-32.08
-16.33
-1.69
10.59
20.04
26.80
31.21
33.62
34.31
33.62
32.02
30.14
28.64
27.98
28.31
29.46
30.99
32.34
33.08
32.96
31.95
30.21
27.91
25.25
22.33
19.32
16.35
13.62
11.28
9.33
7.60
5.69
3.16
-0.33
-4.76
-9.73
-14.57
-18.63
-21.60
-23.74
-25.77
-28.60
-32.95
-38.91
-45.89
-52.63
-57.58
-59.29
-56.72
-49.61
-38.49
-24.61
-9.67
4.61
16.76
25.86
31.57
34.07
33.97
32.14
29.55
27.03
25.15
24.12
23.89
24.25
24.97
25.90
26.89
27.80
28.44
28.55
27.95
26.55
24.40
21.66
18.58
15.38
12.22
9.16
6.14
3.04
-0.24
-3.75
-7.41
-11.07
-14.59
-17.90
-21.01
-24.09
-27.38
-31.21
-35.89
-41.53
-47.88
-54.18
-59.17
-61.40
-59.61
-53.27
-42.79
-29.48
-15.16
-1.61
9.87
18.63
24.63
28.10
29.43
28.99
27.12
24.34
21.25
18.54
16.77
16.20
16.72
17.88
19.12
19.92
20.04
19.51
18.57
17.50
16.51
15.57
14.51
13.01
10.86
7.97
4.50
0.80
-2.73
-5.80
-8.35
-10.56
-12.83
-15.59
-19.22
-24.00
-29.95
-36.76
-43.66
-49.42
-52.63
-52.06
-47.19
-38.37
-26.87
-14.35
-2.46
7.61
15.33
20.63
23.68
24.71
23.99
21.91
19.09
16.37
14.55
14.16
15.24
17.28
19.51
21.13
21.71
21.26
20.10
18.63
17.08
15.39
13.28
10.48
6.86
2.56
-2.07
-6.61
-10.74
-14.31
-17.41
-20.28
-23.19
-26.43
-30.25
-34.85
-40.32
-46.43
-52.50
-57.32
-59.39
-57.39
-50.72
-39.88
-26.32
-12.00
1.27
12.41
21.05
27.33
31.49
33.62
33.70
31.92
28.82
25.35
22.55
21.19
21.45
22.87
24.59
25.74
25.75
24.54
22.48
20.13
17.95
16.08
14.30
12.16
9.29
5.58
1.20
-3.43
-7.86
-11.79
-15.12
-18.03
-20.84
-23.99
-27.87
-32.78
-38.72
-45.41
-52.05
-57.46
-60.28
-59.39
-54.22
-45.07
-33.05
-19.77
-6.95
4.10
12.63
18.54
22.11
23.78
23.97
23.15
21.84
20.64
20.08
20.46
21.77
23.60
25.31
26.34
26.39
25.54
24.13
22.54
20.98
19.35
17.39
14.75
11.26
6.96
2.12
-2.84
-7.57
-11.76
-15.38
-18.65
-22.00
-25.98
-31.04
-37.34
-44.56
-51.78
-57.63
-60.60
-59.48
-53.80
-43.98
-31.28
-17.43
-4.07
7.47
16.53
22.88
26.69
28.28
28.08
26.63
24.55
22.52
21.08
20.59
21.06
22.28
23.83
25.26
26.19
26.38
25.74
24.27
22.00
18.95
15.14
10.67
5.78
0.81
-3.85
-8.00
-11.71
-15.29
-19.20
-23.85
-29.39
-35.67
-42.17
-47.99
-52.02
-53.07
-50.19
-43.00
-31.97
-18.38
-4.05
9.15
19.88
27.58
32.39
34.86
35.50
34.57
32.17
28.52
24.15
19.90
16.69
15.11
15.14
16.20
17.47
18.26
18.30
17.68
16.63
15.15
12.97
9.68
5.05
-0.73
-7.02
-12.92
-17.65
-20.84
-22.70
-23.81
-25.01
-27.01
-30.27
-34.84
-40.23
-45.54
-49.51
-50.82
-48.46
-42.14
-32.38
-20.40
-7.78
4.02
13.96
21.53
26.65
29.41
30.02
28.79
26.15
22.80
19.51
16.97
15.54
15.20
15.53
15.97
16.04
15.56
14.66
13.64
12.79
12.16
11.52
10.44
8.56
5.75
2.27
-1.30
-4.37
-6.57
-7.94
-8.95
-10.32
-12.71
-16.59
-22.08
-28.85
-36.11
-42.65
-47.05
-47.99
-44.68
-37.14
-26.33
-13.79
-1.21
10.08
19.33
26.34
31.19
33.97
34.74
33.69
31.28
28.32
25.78
24.45
24.63
26.02
27.88
29.34
29.71
28.77
26.70
23.93
20.96
18.05
15.25
12.37
9.14
5.36
1.01
-3.70
-8.43
-12.79
-16.53
-19.66
-22.43
-25.26
-28.57
-32.68
-37.67
-43.32
-49.04
-53.90
-56.76
-56.45
-52.12
-43.58
-31.45
-17.12
-2.37
11.10
22.17
30.44
36.12
39.75
41.86
42.78
42.70
41.80
40.46
39.15
38.36
38.33
38.98
39.93
40.69
40.89
40.31
38.98
37.01
34.60
31.93
29.10
26.21
23.25
20.17
16.91
13.41
9.69
5.85
2.03
-1.68
-5.32
-9.06
-13.16
-17.86
-23.32
-29.61
-36.66
-44.21
-51.69
-58.06
-61.95
-61.94
-57.11
-47.44
-34.01
-18.77
-3.85
9.04
19.04
26.15
30.85
33.69
35.00
34.91
33.61
31.50
29.30
27.86
27.81
29.36
32.14
35.33
38.04
39.55
39.53
38.08
35.61
32.58
29.39
26.28
23.27
20.23
16.92
13.14
8.80
3.98
-1.05
-5.94
-10.44
-14.41
-17.94
-21.28
-24.79
-28.84
-33.76
-39.59
-45.93
-51.86
-56.05
-57.05
-53.82
-46.11
-34.65
-20.94
-6.89
5.84
16.15
23.67
28.61
31.43
32.64
32.63
31.74
30.35
28.94
27.97
27.75
28.24
29.13
29.89
30.06
29.45
28.12
26.35
24.41
22.43
20.33
17.93
15.09
11.80
8.24
4.66
1.26
-1.93
-5.03
-8.17
-11.37
-14.50
-17.37
-19.81
-21.83
-23.68
-25.74
-28.45
-32.21
-37.14
-43.00
-48.98
-53.77
-55.82
-53.79
-47.06
-36.05
-22.09
-7.05
7.26
19.60
29.34
36.42
41.01
43.43
44.07
43.42
42.04
40.49
39.18
38.29
37.83
37.68
37.69
37.70
37.53
37.04
36.05
34.49
32.27
29.35
25.68
21.31
16.35
11.13
5.99
1.28
-2.89
-6.64
-10.21
-13.82
-17.48
-21.03
-24.28
-27.11
-29.66
-32.22
-35.10
-38.58
-42.81
-47.74
-53.03
-58.03
-61.68
-62.71
-60.01
-53.09
-42.37
-29.22
-15.50
-3.02
7.06
14.36
19.18
22.07
23.53
23.91
23.43
22.35
21.01
19.72
18.72
18.07
17.74
17.66
17.76
17.95
18.02
17.66
16.62
14.75
12.18
9.23
6.27
3.59
1.20
-1.04
-3.37
-5.96
-8.83
-11.90
-14.99
-17.96
-20.67
-23.09
-25.25
-27.25
-29.30
-31.69
-34.73
-38.54
-42.84
-46.80
-49.18
-48.71
-44.49
-36.50
-25.63
-13.37
-1.36
9.14
17.46
23.43
27.14
28.72
28.31
26.19
22.89
19.15
15.80
13.45
12.34
12.31
12.97
13.83
14.56
14.99
15.05
14.71
13.89
12.50
10.46
7.79
4.56
0.97
-2.75
-6.33
-9.48
-12.03
-13.93
-15.27
-16.29
-17.31
-18.65
-20.59
-23.27
-26.78
-31.06
-35.89
-40.83
-45.12
-47.78
-47.77
-44.35
-37.36
-27.36
-15.53
-3.35
7.72
16.61
22.74
26.03
26.82
25.68
23.34
20.52
17.89
15.92
14.87
14.78
15.45
16.54
17.65
18.37
18.46
17.87
16.76
15.42
14.10
12.86
11.60
10.06
7.98
5.24
1.87
-1.93
-5.86
-9.60
-12.88
-15.60
-17.86
-19.93
-22.18
-24.92
-28.31
-32.37
-36.92
-41.60
-45.73
-48.39
-48.56
-45.36
-38.51
-28.53
-16.67
-4.60
6.13
14.52
20.20
23.30
24.23
23.40
21.28
18.36
15.27
12.66
11.07
10.70
11.43
12.84
14.37
15.59
16.20
16.11
15.40
14.22
12.76
11.20
9.62
7.96
6.06
3.77
1.01
-2.11
-5.30
-8.27
-10.82
-13.00
-15.02
-17.18
-19.78
-22.99
-26.87
-31.38
-36.31
-41.14
-45.09
-47.09
-46.18
-41.81
-34.15
-24.11
-13.08
-2.46
6.72
13.97
19.28
22.77
24.60
24.78
23.42
20.77
17.42
14.13
11.65
10.43
10.53
11.61
13.03
14.20
14.71
14.44
13.50
12.11
10.44
8.57
6.46
4.09
1.46
-1.34
-4.15
-6.84
-9.32
-11.60
-13.73
-15.80
-17.87
-20.00
-22.27
-24.89
-28.09
-32.04
-36.60
-41.16
-44.62
-45.70
-43.31
-37.10
-27.60
-16.13
-4.34
6.29
14.83
20.92
24.64
26.22
25.94
24.16
21.28
17.89
14.60
11.98
10.38
9.89
10.35
11.42
12.68
13.73
14.23
14.04
13.20
11.89
10.33
8.62
6.70
4.36
1.44
-2.06
-5.83
-9.41
-12.32
-14.32
-15.57
-16.50
-17.72
-19.79
-23.01
-27.33
-32.35
-37.30
-41.13
-42.74
-41.25
-36.21
-27.94
-17.36
-5.88
5.04
14.20
20.95
25.10
26.86
26.66
24.99
22.39
19.47
16.78
14.81
13.83
13.87
14.70
15.88
16.90
17.38
17.13
16.18
14.75
13.10
11.33
9.37
7.01
3.99
0.26
-3.94
-8.13
-11.74
-14.39
-16.08
-17.25
-18.64
-21.02
-24.86
-30.11
-36.20
-42.13
-46.68
-48.77
-47.66
-43.10
-35.39
-25.29
-13.91
-2.45
7.96
16.50
22.74
26.59
28.23
27.98
26.19
23.35
20.02
16.93
14.74
13.93
14.53
16.09
17.85
19.03
19.08
17.93
15.88
13.38
10.83
8.38
5.99
3.47
0.70
-2.37
-5.67
-9.03
-12.26
-15.21
-17.88
-20.47
-23.35
-27.00
-31.77
-37.65
-44.13
-50.16
-54.34
-55.28
-52.06
-44.51
-33.34
-19.97
-6.17
6.43
16.65
24.00
28.56
30.73
31.07
30.09
28.21
25.87
23.59
21.88
21.12
21.42
22.50
23.81
24.78
25.06
24.64
23.74
22.63
21.39
19.86
17.74
14.79
10.99
6.58
1.94
-2.51
-6.50
-9.92
-12.81
-15.31
-17.69
-20.28
-23.47
-27.57
-32.66
-38.44
-44.07
-48.33
-49.80
-47.39
-40.68
-30.18
-17.22
-3.59
8.93
19.06
26.22
30.49
32.39
32.55
31.54
29.77
27.60
25.51
23.97
23.41
23.93
25.17
26.51
27.24
26.98
25.79
24.10
22.42
21.02
19.81
18.44
16.49
13.76
10.29
6.34
2.22
-1.78
-5.48
-8.77
-11.69
-14.36
-17.14
-20.48
-24.87
-30.56
-37.34
-44.34
-50.15
-53.14
-51.99
-46.17
-36.15
-23.27
-9.34
3.87
15.01
23.43
29.02
32.15
33.28
32.94
31.59
29.70
27.78
26.37
25.90
26.57
28.16
30.14
31.77
32.47
32.02
30.60
28.72
26.81
25.06
23.32
21.24
18.50
15.01
10.99
6.82
2.91
-0.45
-3.23
-5.62
-7.96
-10.62
-13.87
-17.89
-22.77
-28.46
-34.66
-40.76
-45.73
-48.32
-47.38
-42.31
-33.33
-21.56
-8.56
4.07
15.18
24.19
30.96
35.55
38.04
38.50
37.19
34.64
31.69
29.21
27.87
27.93
29.19
31.11
33.00
34.24
34.44
33.51
31.58
29.01
26.08
23.03
19.85
16.47
12.79
8.82
4.72
0.71
-3.07
-6.57
-9.90
-13.18
-16.54
-20.08
-23.88
-28.12
-32.95
-38.36
-43.95
-48.82
-51.67
-51.24
-46.74
-38.27
-26.89
-14.23
-1.99
8.58
16.93
23.13
27.54
30.46
31.98
32.04
30.67
28.26
25.50
23.20
21.92
21.76
22.32
22.88
22.72
21.55
19.42
16.73
13.90
11.21
8.66
6.09
3.27
0.10
-3.39
-7.08
-10.82
-14.44
-17.83
-20.94
-23.81
-26.66
-29.82
-33.67
-38.50
-44.25
-50.44
-56.13
-60.03
-60.85
-57.72
-50.48
-39.86
-27.30
-14.48
-2.84
6.79
14.22
19.74
23.66
26.17
27.25
26.93
25.46
23.41
21.46
20.21
19.89
20.34
21.14
21.82
22.05
21.68
20.70
19.28
17.58
15.80
14.02
12.19
10.11
7.48
4.13
0.15
-4.08
-8.00
-11.14
-13.37
-14.99
-16.54
-18.69
-21.92
-26.44
-32.19
-38.76
-45.42
-51.15
-54.73
-54.96
-51.11
-43.21
-32.13
-19.42
-6.79
4.37
13.30
19.92
24.58
27.74
29.74
30.73
30.79
30.14
29.12
28.19
27.77
28.06
29.03
30.40
31.81
32.88
33.32
32.97
31.75
29.71
26.93
23.60
19.93
16.07
12.16
8.24
4.38
0.69
-2.70
-5.73
-8.43
-11.02
-13.77
-16.94
-20.68
-25.02
-29.91
-35.21
-40.67
-45.79
-49.76
-51.50
-49.95
-44.41
-35.01
-22.72
-9.24
3.60
14.29
22.12
27.20
30.16
31.77
32.57
32.70
32.14
30.92
29.33
27.91
27.19
27.42
28.47
29.86
31.00
31.42
30.89
29.45
27.33
24.76
21.93
18.99
15.90
12.60
8.99
5.09
1.09
-2.71
-5.99
-8.57
-10.55
-12.27
-14.15
-16.60
-19.93
-24.30
-29.62
-35.53
-41.22
-45.49
-46.97
-44.64
-38.20
-28.31
-16.40
-4.22
6.75
15.61
22.11
26.44
28.90
29.73
29.16
27.43
25.02
22.58
20.76
20.03
20.51
21.92
23.65
24.95
25.24
24.25
22.11
19.27
16.26
13.49
11.04
8.72
6.14
2.97
-0.90
-5.26
-9.67
-13.63
-16.77
-19.05
-20.79
-22.55
-24.99
-28.62
-33.67
-39.96
-46.82
-53.15
-57.57
-58.67
-55.50
-47.87
-36.62
-23.36
-10.05
1.65
10.76
17.18
21.42
24.15
25.84
26.69
26.67
25.83
24.39
22.77
21.40
20.56
20.34
20.61
21.08
21.42
21.30
20.53
19.04
16.91
14.35
11.59
8.80
6.07
3.33
0.52
-2.39
-5.37
-8.33
-11.28
-14.27
-17.35
-20.57
-23.86
-27.16
-30.44
-33.86
-37.69
-42.09
-46.84
-51.05
-53.29
-51.96
-45.89
-34.87
-19.73
-2.18
15.78
32.43
46.69
58.22
67.20
74.14
79.56
84.03
88.07
92.21
96.93
102.61
109.32
116.88
124.79
132.48
139.50
145.56
150.52
154.10
155.80
155.04
151.56
145.79
138.95
132.63
128.08
125.49
123.79
121.03
115.19
105.17
91.16
74.52
56.97
39.86
23.55
7.34
-10.19
-30.65
-55.17
-83.87
-115.55
-147.64
-176.61
-198.73
-210.85
-211.36
-200.51
-180.32
-153.93
-124.75
-95.80
-69.29
-46.50
-27.80
-12.72
-0.29
10.63
20.87
30.63
39.54
46.74
51.39
52.83
50.68
44.79
35.30
22.83
8.62
-5.49
-17.54
-26.05
-30.50
-31.34
-29.52
-26.03
-21.58
-16.75
-12.28
-9.17
-8.33
-10.20
-14.34
-19.67
-25.06
-29.91
-34.53
-39.64
-45.77
-52.56
-58.66
-62.26
-61.81
-56.79
-47.83
-36.34
-23.86
-11.46
0.46
11.94
23.05
33.65
43.26
51.50
58.33
64.32
70.25
76.66
83.46
89.80
94.55
96.73
95.95
92.26
85.76
76.19
62.79
44.60
21.12
-7.24
-38.97
-71.69
-102.45
-128.14
-145.81
-153.19
-149.43
-135.51
-114.33
-90.06
-66.98
-48.37
-35.75
-28.89
-26.49
-26.93
-28.87
-31.57
-34.74
-38.35
-42.38
-46.80
-51.43
-56.08
-60.53
-64.76
-69.02
-73.70
-78.89
-84.05
-87.84
-88.58
-84.94
-76.75
-65.19
-52.58
-41.62
-34.60
-32.88
-36.70
-45.25
-56.72
-68.50
-77.46
-80.76
-76.60
-64.97
-47.79
-28.20
-9.43
6.20
17.84
25.92
31.58
35.96
39.89
43.72
47.53
51.31
55.12
59.11
63.47
68.34
73.68
79.19
84.30
88.50
91.63
94.27
97.68
103.42
112.66
125.54
140.91
156.50
169.50
177.09
177.00
167.96
150.19
125.83
99.03
74.93
58.09
50.52
50.70
54.02
54.73
48.27
33.00
10.25
-16.90
-45.33
-73.00
-98.97
-122.79
-143.75
-160.56
-171.47
-174.71
-168.91
-153.51
-129.39
-99.34
-68.16
-41.52
-24.25
-18.20
-21.44
-29.18
-36.28
-40.17
-42.30
-47.05
-59.08
-80.21
-108.02
-136.80
-160.10
-173.33
-175.10
-166.75
-151.13
-131.55
-111.41
-94.26
-83.20
-79.87
-83.23
-89.58
-93.80
-91.77
-82.19
-66.78
-48.75
-30.76
-13.57
3.57
21.54
40.02
57.30
71.48
81.91
90.12
99.51
113.99
136.32
166.79
202.86
239.67
271.35
292.57
300.40
295.33
281.05
263.05
246.63
235.27
230.01
229.88
232.65
236.08
238.41
238.19
233.72
222.93
203.63
174.02
133.23
80.79
16.84
-58.28
-144.05
-239.48
-341.60
-444.27
-538.18
-612.66
-660.50
-678.73
-669.58
-639.73
-598.45
-554.81
-514.84
-480.10
-448.20
-418.65
-390.95
-365.04
-341.24
-320.31
-302.83
-288.05
-273.45
-255.93
-239.22
-227.72
-223.83
-226.29
-231.42
-235.29
-235.20
-230.28
-221.15
-216.27
-221.13
-234.96
-251.21
-262.76
-266.49
-264.01
-259.41
-211.71
-100.61
66.86
257.75
435.56
578.49
681.24
748.40
788.56
810.67
814.82
800.70
771.06
732.10
690.97
653.31
622.33
599.13
583.05
566.53
542.79
508.41
467.77
426.23
388.13
355.67
328.98
306.51
282.10
250.40
209.00
159.37
104.74
48.67
-6.30
-58.96
-109.64
-161.59
-218.14
-281.00
-349.18
-419.62
-487.42
-546.58
-590.72
-614.25
-614.46
-592.29
-552.85
-504.58
-457.29
-418.58
-390.82
-370.11
-347.95
-314.68
-263.22
-191.44
-102.45
-3.46
96.52
188.44
264.61
319.53
350.63
358.63
347.31
322.61
290.97
257.95
226.82
198.23
170.40
140.26
105.27
65.13
22.82
-15.82
-43.77
-55.70
-50.03
-29.60
-0.77
28.83
52.81
67.66
72.85
69.94
61.19
48.23
31.38
9.44
-19.66
-57.54
-103.70
-154.28
-202.20
-238.68
-255.94
-249.92
-221.79
-177.56
-126.15
-76.69
-36.45
-9.70
2.34
1.28
-8.76
-21.69
-30.65
-30.50
-20.44
-5.35
5.33
1.33
-23.48
-67.37
-120.52
-168.23
-196.56
-197.39
-170.66
-123.12
-64.57
-4.10
52.20
101.18
141.45
172.11
192.49
202.79
204.74
201.63
197.32
194.84
195.19
197.13
197.94
194.93
186.72
173.98
159.07
144.90
133.83
126.63
122.37
118.91
113.94
106.02
95.06
82.23
69.27
57.51
47.08
36.47
22.67
1.92
-28.85
-70.61
-120.92
-173.93
-221.48
-255.70
-271.51
-268.21
-249.18
-219.82
-184.63
-145.08
-99.88
-47.26
11.68
71.28
122.06
154.36
162.82
149.24
122.20
93.43
72.77
64.37
65.72
69.74
68.64
57.44
35.27
4.91
-29.18
-62.67
-92.13
-114.79
-128.27
-131.27
-124.59
-112.40
-101.59
-99.42
-110.04
-131.94
-158.18
-179.37
-188.22
-182.75
-166.86
-147.53
-131.02
-120.00
-113.15
-106.92
-97.92
-84.47
-66.75
-45.97
-23.29
0.50
25.02
49.95
74.67
98.24
119.66
138.06
152.95
164.30
172.39
177.33
178.63
174.99
164.78
147.11
122.93
95.74
71.16
55.49
53.59
67.24
94.37
129.69
166.39
197.90
219.36
228.19
224.10
208.40
183.38
151.76
116.61
81.33
49.44
23.99
6.64
-3.22
-8.35
-12.75
-20.13
-32.50
-49.64
-69.35
-88.37
-103.60
-113.03
-116.01
-113.27
-106.53
-97.99
-90.01
-84.64
-83.17
-85.95
-92.42
-101.20
-110.56
-118.83
-124.82
-127.89
-127.74
-124.16
-116.76
-105.07
-88.70
-67.83
-43.02
-14.88
16.12
49.68
85.03
120.31
152.47
178.00
194.36
201.30
201.04
197.23
193.21
190.47
188.29
184.52
177.02
164.95
149.36
132.74
117.65
105.55
95.98
87.00
76.43
63.21
48.31
34.33
24.30
19.93
20.54
23.07
23.32
17.66
4.28
-16.43
-42.36
-70.35
-96.71
-117.66
-129.97
-131.80
-123.50
-107.93
-89.87
-74.54
-65.83
-65.08
-70.96
-80.44
-90.40
-98.82
-105.23
-110.14
-113.72
-114.52
-109.05
-92.88
-62.94
-19.89
30.59
78.80
114.20
129.07
120.95
92.41
48.74
-4.78
-64.60
-128.33
-192.93
-253.17
-301.96
-332.56
-341.59
-330.62
-305.64
-274.35
-243.16
-215.06
-189.55
-164.25
-136.94
-107.04
-75.76
-45.23
-17.41
6.75
27.28
44.68
59.31
71.10
79.70
84.93
87.05
86.82
85.14
82.60
79.30
74.99
69.37
62.46
54.68
46.55
38.42
30.27
21.88
13.18
4.59
-2.93
-8.17
-10.09
-8.13
-2.28
7.09
19.36
33.74
49.21
64.50
78.31
89.59
97.85
103.38
107.03
109.81
112.48
115.21
117.75
119.65
120.67
121.03
121.39
122.48
124.64
127.74
131.09
133.87
135.48
135.77
135.06
133.93
133.02
132.80
133.39
134.34
134.56
132.35
125.93
114.21
97.65
78.59
60.73
47.83
42.19
43.67
49.82
57.09
62.31
63.84
61.68
56.70
49.51
39.97
27.34
11.02
-8.79
-30.84
-53.32
-74.30
-92.10
-105.42
-113.39
-115.80
-113.53
-108.65
-104.16
-103.07
-107.32
-117.18
-131.35
-147.66
-164.17
-179.74
-194.10
-207.37
-219.36
-229.15
-235.12
-235.46
-228.93
-215.46
-196.18
-173.00
-147.90
-122.30
-96.87
-71.91
-47.82
-25.52
-6.37
8.48
18.68
25.06
29.32
33.25
38.02
43.75
49.77
55.12
59.21
61.97
63.83
65.34
66.91
68.60
70.21
71.30
71.24
69.36
65.08
58.12
48.78
37.88
26.54
15.77
6.15
-2.22
-9.50
-15.62
-20.09
-22.00
-20.43
-14.96
-6.10
4.81
16.11
26.28
34.52
40.64
44.90
47.56
48.66
48.04
45.66
41.90
37.57
33.65
30.91
29.56
29.18
29.11
28.72
27.74
26.28
24.66
23.19
21.92
20.71
19.34
17.69
15.76
13.71
11.64
9.51
7.04
3.79
-0.73
-6.77
-14.20
-22.30
-29.89
-35.54
-37.99
-36.51
-31.01
-22.04
-10.49
2.62
16.31
29.71
42.08
52.82
61.58
68.24
72.91
75.89
77.50
78.12
78.09
77.85
77.80
78.35
79.82
82.37
86.00
90.52
95.43
99.98
103.11
103.77
101.19
95.17
86.17
75.28
63.82
52.97
43.42
35.29
28.11
21.10
13.41
4.40
-6.08
-17.68
-29.56
-40.66
-50.00
-56.90
-61.11
-62.76
-62.27
-60.19
-57.09
-53.50
-49.73
-45.87
-41.79
-37.22
-31.92
-25.82
-19.02
-11.65
-3.69
5.04
14.84
25.86
37.82
50.03
61.44
71.07
78.28
82.93
85.36
86.21
86.16
85.77
85.45
85.50
86.05
87.09
88.43
89.64
90.19
89.58
87.58
84.35
80.41
76.48
73.13
70.42
67.86
64.55
59.50
52.04
42.01
29.75
15.87
0.84
-15.14
-32.13
-50.17
-68.88
-87.36
-104.29
-118.35
-128.80
-135.81
-140.35
-143.78
-147.32
-151.45
-155.78
-159.23
-160.44
-158.19
-151.76
-140.97
-126.21
-108.39
-88.78
-68.97
-50.61
-35.19
-23.70
-16.56
-13.43
-13.46
-15.43
-18.05
-20.25
-21.38
-21.17
-19.62
-16.86
-12.96
-8.01
-2.06
4.70
12.01
19.60
27.19
34.60
41.65
48.14
53.80
58.32
61.42
62.94
62.89
61.37
58.49
54.36
49.09
42.87
36.00
28.84
21.75
15.01
8.72
2.81
-2.84
-8.28
-13.46
-18.22
-22.33
-25.70
-28.42
-30.85
-33.47
-36.82
-41.26
-46.82
-53.13
-59.38
-64.43
-67.08
-66.37
-61.91
-54.01
-43.57
-31.86
-20.02
-8.89
1.05
9.52
16.30
21.12
23.87
24.67
24.02
22.68
21.38
20.59
20.42
20.69
21.12
21.47
21.65
21.61
21.34
20.81
19.96
18.69
16.93
14.67
11.94
8.92
5.82
2.85
0.06
-2.76
-5.95
-9.94
-15.02
-21.22
-28.30
-35.79
-42.99
-49.09
-53.18
-54.40
-52.17
-46.40
-37.62
-26.88
-15.50
-4.74
4.58
12.09
17.83
22.00
24.81
26.41
26.95
26.72
26.15
25.73
25.82
26.48
27.44
28.25
28.51
28.04
26.96
25.53
23.94
22.19
20.09
17.30
13.68
9.29
4.44
-0.44
-4.99
-9.08
-12.78
-16.33
-20.07
-24.37
-29.54
-35.71
-42.71
-49.85
-56.00
-59.72
-59.79
-55.64
-47.61
-36.93
-25.24
-14.09
-4.43
3.47
9.83
14.97
19.09
22.27
24.56
26.24
27.76
29.66
32.34
35.92
40.15
44.60
48.76
52.25
54.90
56.75
57.98
58.73
59.06
58.91
58.21
57.00
55.47
54.02
53.07
52.88
53.45
54.49
55.59
56.31
56.21
54.95
52.27
48.18
43.08
37.83
33.51
31.12
31.21
33.77
38.28
44.01
50.26
56.44
62.14
66.95
70.49
72.52
73.08
72.57
71.57
70.75
70.50
70.93
71.69
72.11
71.39
68.74
63.69
56.21
46.80
36.20
25.20
14.29
3.60
-6.97
-17.49
-27.88
-37.81
-46.90
-54.89
-61.82
-67.93
-73.59
-79.17
-84.92
-90.93
-97.01
-102.68
-107.16
-109.56
-109.10
-105.37
-98.45
-88.95
-77.82
-66.16
-55.04
-45.35
-37.71
-32.39
-29.36
-28.24
-28.41
-29.12
-29.71
-29.73
-29.05
-27.87
-26.53
-25.41
-24.74
-24.57
-24.78
-25.16
-25.54
-25.83
-26.06
-26.31
-26.69
-27.22
-27.88
-28.62
-29.36
-30.08
-30.78
-31.52
-32.43
-33.73
-35.66
-38.41
-41.90
-45.63
-48.67
-49.85
-48.19
-43.31
-35.66
-26.42
-17.08
-8.92
-2.56
2.03
5.37
7.95
10.04
11.49
12.01
11.37
9.67
7.35
5.00
3.13
1.93
1.23
0.61
-0.37
-1.97
-4.13
-6.59
-8.96
-10.90
-12.26
-13.08
-13.55
-13.90
-14.28
-14.75
-15.31
-15.97
-16.87
-18.20
-20.19
-22.98
-26.60
-30.90
-35.62
-40.34
-44.55
-47.65
-49.07
-48.34
-45.34
-40.33
-33.97
-27.14
-20.68
-15.21
-11.02
-8.14
-6.52
-6.13
-7.02
-9.15
-12.26
-15.87
-19.29
-21.92
-23.39
-23.75
-23.42
-23.01
-22.99
-23.43
-23.98
-24.07
-23.25
-21.59
-19.65
-18.26
-18.07
-19.27
-21.53
-24.30
-27.15
-29.97
-32.97
-36.42
-40.48
-45.18
-50.53
-56.72
-64.00
-72.49
-81.77
-90.72
-97.69
-100.94
-99.34
-92.70
-82.02
-68.99
-55.50
-43.02
-32.23
-23.06
-15.09
-7.84
-1.14
4.95
10.27
14.75
18.51
21.85
25.16
28.82
33.12
38.14
43.75
49.63
55.33
60.48
64.80
68.22
70.81
72.66
73.89
74.50
74.45
73.64
71.93
69.17
65.27
60.34
54.72
48.91
43.40
38.46
33.93
29.32
23.96
17.49
10.16
2.95
-2.63
-4.95
-2.88
3.88
14.64
28.12
42.89
57.92
72.86
87.97
103.80
120.98
140.00
161.20
184.58
209.41
233.88
254.92
268.70
271.66
261.69
238.91
205.48
164.69
119.86
73.75
28.60
-13.16
-48.70
-75.05
-90.02
-93.02
-85.32
-69.49
-48.25
-23.70
2.77
29.66
54.36
72.85
80.37
72.98
49.24
11.19
-36.09
-86.04
-132.63
-171.92
-202.47
-224.71
-239.75
-248.41
-250.99
-247.70
-239.21
-226.86
-212.30
-196.87
-181.12
-164.81
-147.43
-128.71
-109.04
-89.20
-70.02
-52.10
-35.71
-21.10
-8.57
1.54
9.12
14.47
18.23
21.13
23.60
25.61
26.99
27.71
28.17
29.14
31.23
34.55
38.50
41.95
43.79
43.46
41.13
37.65
34.16
31.53
30.17
29.91
30.16
30.25
29.72
28.55
27.24
26.55
27.15
29.17
32.04
34.59
35.69
34.84
32.53
30.11
29.21
30.95
35.50
42.20
50.01
57.96
65.19
70.77
73.35
71.32
63.55
50.12
32.74
14.16
-2.93
-17.15
-28.83
-39.45
-50.46
-62.20
-73.59
-82.74
-87.97
-88.55
-84.95
-78.41
-70.20
-61.11
-51.23
-40.24
-27.87
-14.29
-0.18
13.43
25.54
35.49
43.13
48.60
51.95
52.76
50.12
43.04
31.09
15.03
-3.06
-20.12
-33.04
-39.68
-39.50
-33.61
-23.99
-12.58
-0.37
12.78
27.65
44.85
64.14
84.25
103.42
120.18
134.05
145.68
156.50
168.14
181.79
197.93
216.29
235.97
255.70
274.10
289.87
302.04
310.09
313.95
313.97
310.66
304.43
295.44
283.60
268.88
251.60
232.50
212.77
193.63
175.92
159.87
145.09
130.83
116.43
101.51
86.07
70.23
54.08
37.55
20.48
2.83
-15.21
-33.22
-50.66
-67.38
-83.66
-100.28
-117.82
-135.94
-152.87
-165.74
-171.59
-168.73
-157.44
-139.82
-118.91
-97.65
-78.28
-62.43
-51.31
-45.90
-46.68
-53.20
-63.93
-76.76
-89.77
-101.99
-113.47
-124.85
-136.63
-148.68
-160.41
-171.19
-180.84
-189.92
-199.69
-211.88
-228.02
-248.56
-272.21
-295.59
-313.65
-321.02
-313.89
-291.39
-256.28
-214.00
-170.82
-131.92
-100.34
-76.88
-60.72
-50.03
-42.27
-34.52
-23.99
-9.04
9.92
30.37
48.53
60.92
65.78
63.57
56.42
46.94
37.19
28.36
20.84
14.34
7.80
-0.58
-12.96
-30.83
-53.57
-78.01
-99.34
-112.96
-116.89
-112.79
-104.86
-97.70
-93.46
-90.43
-83.85
-68.43
-41.23
-3.43
40.31
83.60
120.16
144.78
153.41
143.49
115.44
74.67
32.19
2.25
-2.86
20.88
67.29
122.34
170.17
199.64
208.01
199.90
183.16
163.59
142.25
117.41
87.70
54.18
20.34
-10.26
-36.20
-58.96
-82.54
-112.62
-152.41
-200.95
-253.30
-303.12
-345.23
-377.04
-398.30
-410.72
-420.03
-429.13
-435.90
-434.49
-419.73
-390.35
-348.96
-299.57
-247.86
-207.15
-186.39
-185.83
-197.18
-209.32
-212.87
-201.10
-169.02
-118.96
-71.54
-46.20
-51.22
-81.28
-125.06
-173.27
-220.35
-262.08
-301.60
-361.03
-455.89
-584.95
-731.50
-876.60
-1010.33
-1131.37
-1240.10
-1231.23
-1051.60
-730.07
-361.00
-30.70
223.73
403.31
505.21
566.76
611.16
633.36
626.54
593.18
545.53
503.27
472.70
453.22
445.66
446.22
439.45
415.61
376.30
332.82
296.92
273.09
260.72
259.05
262.41
257.64
236.50
200.51
159.84
126.15
105.16
96.45
96.53
97.69
90.24
70.61
43.23
18.06
4.64
7.25
25.21
55.56
93.19
131.94
166.92
194.76
213.49
222.07
220.37
210.17
195.26
179.72
167.01
158.91
155.27
154.35
153.91
152.10
148.20
142.96
138.29
136.56
139.26
145.69
152.64
155.40
149.92
134.82
112.07
85.67
59.25
34.01
8.24
-20.92
-54.99
-92.50
-129.14
-159.78
-180.97
-192.20
-195.45
-193.25
-186.76
-175.17
-157.11
-133.11
-106.90
-85.11
-74.30
-77.51
-92.41
-112.26
-129.42
-139.23
-141.76
-140.47
-138.98
-137.96
-134.59
-124.61
-105.48
-78.42
-48.07
-20.11
1.40
15.40
23.50
28.47
32.88
38.21
44.94
52.87
61.57
70.81
80.73
91.95
105.37
121.89
141.89
164.96
189.93
215.20
238.98
259.38
274.24
280.95
277.14
261.70
236.07
204.55
173.32
148.56
134.63
133.37
144.69
167.36
199.38
237.47
276.49
309.62
330.21
334.43
323.45
303.23
282.01
266.43
258.63
255.96
253.07
245.29
230.95
211.78
191.37
172.72
156.56
141.13
123.56
101.64
75.22
46.25
17.68
-7.99
-29.70
-47.99
-64.09
-79.07
-93.02
-105.11
-114.12
-119.25
-120.69
-119.71
-118.38
-118.96
-123.27
-131.97
-144.15
-157.33
-167.96
-172.65
-169.27
-157.82
-140.18
-119.24
-97.48
-76.13
-55.20
-34.25
-13.44
6.05
22.37
33.93
40.23
42.07
40.98
38.31
34.59
29.44
22.11
12.12
-0.21
-13.83
-27.42
-39.93
-51.28
-62.54
-75.70
-92.77
-114.64
-140.06
-165.50
-185.90
-196.29
-193.51
-177.30
-150.36
-117.19
-82.64
-50.54
-23.10
-1.08
15.67
27.60
35.16
38.72
38.71
35.52
29.57
21.26
11.00
-0.63
-12.88
-24.81
-35.48
-44.35
-51.39
-56.99
-61.65
-65.53
-68.27
-69.17
-67.57
-63.31
-56.93
-49.45
-42.00
-35.47
-30.41
-27.03
-25.39
-25.33
-26.40
-27.75
-28.14
-26.31
-21.44
-13.39
-2.74
9.62
22.92
36.76
51.03
65.73
80.78
96.09
111.67
127.73
144.48
161.80
178.93
194.43
206.56
213.73
215.01
210.29
200.22
185.97
168.94
150.54
131.93
113.86
96.64
80.26
64.71
50.16
36.87
25.13
15.00
6.35
-0.88
-6.46
-9.86
-10.44
-8.05
-3.28
2.54
7.85
11.39
12.54
11.34
8.21
3.67
-1.88
-8.11
-14.78
-21.71
-28.75
-35.74
-42.44
-48.52
-53.67
-57.76
-61.02
-64.00
-67.27
-71.14
-75.51
-79.98
-84.28
-88.45
-92.78
-97.52
-102.48
-107.07
-110.59
-112.73
-113.88
-115.04
-117.30
-121.36
-127.20
-134.22
-141.58
-148.71
-155.42
-161.92
-168.45
-175.24
-182.51
-190.66
-200.16
-211.03
-222.23
-231.27
-234.59
-228.64
-211.11
-181.75
-142.40
-96.02
-45.82
5.41
55.22
101.15
140.59
171.26
192.02
203.53
208.10
208.75
207.98
206.88
205.14
201.74
195.88
187.68
178.08
168.37
159.52
151.82
145.01
138.57
132.16
125.77
119.47
113.20
106.60
99.16
90.52
80.76
70.26
59.50
48.66
37.45
25.38
12.10
-2.19
-16.70
-30.27
-41.83
-50.75
-56.88
-60.44
-61.74
-60.98
-58.14
-53.23
-46.38
-38.12
-29.27
-20.81
-13.58
-8.03
-4.21
-1.83
-0.55
-0.01
0.09
0.13
0.63
2.17
5.12
9.35
14.02
17.70
18.73
15.65
7.66
-5.35
-22.92
-44.24
-68.34
-93.98
-119.52
-142.95
-162.37
-176.73
-186.50
-193.64
-200.83
-210.29
-222.77
-237.39
-252.16
-264.93
-273.82
-277.27
-273.80
-262.03
-241.52
-213.76
-182.55
-153.13
-130.31
-116.58
-111.08
-110.34
-109.86
-105.79
-95.70
-78.50
-53.90
-22.08
16.17
59.09
103.81
146.67
183.90
212.20
229.04
232.65
222.25
198.81
165.72
128.76
94.98
70.64
59.21
60.45
70.78
85.01
98.18
106.83
109.17
104.70
93.52
76.07
53.52
28.25
3.85
-15.59
-27.11
-30.38
-28.41
-26.89
-31.99
-47.69
-73.89
-106.22
-137.97
-162.89
-177.52
-181.86
-178.20
-169.13
-155.99
-138.71
-116.79
-90.67
-62.20
-34.17
-9.05
12.08
29.77
45.64
61.18
76.96
92.50
106.64
118.24
126.80
132.51
136.31
139.65
144.22
151.45
161.95
175.03
188.76
200.44
207.67
209.33
205.93
199.39
192.12
186.12
182.48
181.29
181.75
182.41
181.08
175.08
161.61
138.58
105.52
64.18
18.42
-26.60
-65.72
-94.95
-112.31
-117.92
-113.64
-102.39
-87.56
-72.38
-59.38
-49.95
-44.03
-40.22
-36.28
-30.16
-20.92
-9.14
3.29
14.10
21.63
25.42
26.11
24.89
22.95
21.14
19.89
19.36
19.44
19.61
19.02
16.65
11.77
4.31
-5.04
-15.17
-24.95
-33.70
-41.32
-48.06
-54.32
-60.42
-66.64
-73.33
-80.80
-89.18
-98.12
-106.65
-113.31
-116.57
-115.33
-109.35
-99.31
-86.59
-72.66
-58.73
-45.38
-32.64
-20.28
-8.17
3.50
14.20
23.29
30.37
35.45
38.98
41.64
43.90
45.97
47.72
48.93
49.54
49.70
49.71
49.74
49.77
49.48
48.53
46.67
43.93
40.57
36.96
33.42
30.10
26.90
23.60
19.93
15.79
11.26
6.65
2.29
-1.57
-4.97
-8.20
-11.75
-16.12
-21.69
-28.47
-36.06
-43.49
-49.47
-52.60
-51.85
-46.89
-38.27
-27.24
-15.28
-3.66
6.86
16.02
23.81
30.23
35.14
38.38
39.89
39.92
38.93
37.53
36.18
35.11
34.26
33.43
32.38
31.01
29.32
27.38
25.33
23.22
21.03
18.69
16.08
13.16
9.94
6.48
2.89
-0.79
-4.51
-8.26
-11.97
-15.59
-19.11
-22.58
-26.16
-30.06
-34.52
-39.67
-45.43
-51.48
-57.15
-61.48
-63.40
-62.00
-56.81
-48.00
-36.37
-23.12
-9.53
3.41
15.14
25.51
34.60
42.47
49.05
54.13
57.50
59.05
58.93
57.52
55.27
52.62
49.86
47.06
44.23
41.27
38.09
34.64
30.90
26.95
22.92
18.99
15.29
11.88
8.66
5.44
2.05
-1.57
-5.33
-9.03
-12.54
-15.76
-18.79
-21.78
-24.92
-28.41
-32.45
-37.19
-42.65
-48.53
-54.11
-58.29
-59.81
-57.67
-51.56
-42.00
-30.18
-17.60
-5.54
5.23
14.49
22.36
28.99
34.40
38.42
40.96
42.04
42.00
41.31
40.48
39.88
39.64
39.65
39.73
39.63
39.15
38.19
36.70
34.70
32.19
29.20
25.78
21.93
17.71
13.21
8.56
3.91
-0.58
-4.84
-8.87
-12.72
-16.51
-20.34
-24.31
-28.53
-33.14
-38.28
-43.95
-49.92
-55.55
-59.91
-61.91
-60.71
-56.02
-48.25
-38.34
-27.50
-16.87
-7.18
1.21
8.28
14.14
18.90
22.59
25.21
26.80
27.52
27.64
27.56
27.60
27.90
28.32
28.55
28.28
27.39
25.99
24.39
22.89
21.58
20.26
18.56
16.13
12.80
8.70
4.20
-0.27
-4.29
-7.59
-10.04
-11.64
-12.62
-13.34
-14.32
-16.09
-19.04
-23.18
-28.02
-32.58
-35.58
-35.89
-32.90
-26.77
-18.39
-9.03
0.13
8.31
15.29
21.16
26.06
29.96
32.63
33.87
33.71
32.54
31.04
29.88
29.49
29.93
30.87
31.83
32.39
32.33
31.72
30.79
29.81
28.89
27.94
26.71
24.92
22.44
19.36
15.89
12.32
8.88
5.58
2.33
-1.02
-4.55
-8.21
-11.86
-15.44
-18.96
-22.58
-26.36
-30.12
-33.27
-34.93
-34.25
-30.80
-24.80
-17.14
-9.02
-1.52
4.73
9.65
13.52
16.66
19.22
21.13
22.28
22.72
22.75
22.88
23.51
24.74
26.28
27.57
27.99
27.18
25.10
22.09
18.58
14.95
11.34
7.70
3.84
-0.43
-5.17
-10.32
-15.66
-20.89
-25.74
-30.02
-33.75
-37.12
-40.47
-44.15
-48.44
-53.43
-59.00
-64.78
-70.10
-74.09
-75.75
-74.22
-69.12
-60.69
-49.85
-37.94
-26.21
-15.56
-6.32
1.54
8.17
13.64
17.90
20.89
22.78
23.95
24.87
25.89
27.13
28.39
29.37
29.73
29.32
28.19
26.52
24.62
22.71
20.91
19.10
16.99
14.29
10.88
6.93
2.85
-0.92
-4.07
-6.65
-8.99
-11.58
-14.88
-19.18
-24.56
-30.83
-37.47
-43.65
-48.27
-50.18
-48.58
-43.27
-34.84
-24.44
-13.44
-2.99
6.21
13.90
20.09
24.84
28.19
30.21
31.10
31.30
31.35
31.75
32.71
34.14
35.64
36.81
37.33
37.16
36.46
35.51
34.54
33.64
32.73
31.55
29.85
27.39
24.14
20.20
15.92
11.66
7.69
4.01
0.29
-3.94
-9.15
-15.54
-23.06
-31.34
-39.82
-47.77
-54.29
-58.46
-59.39
-56.57
-50.12
-40.85
-30.09
-19.28
-9.56
-1.51
4.80
9.58
13.08
15.42
16.66
16.88
16.38
15.60
15.02
14.92
15.31
15.87
16.18
15.84
14.75
13.01
10.88
8.62
6.34
3.99
1.39
-1.63
-5.10
-8.89
-12.74
-16.36
-19.53
-22.14
-24.32
-26.32
-28.50
-31.26
-34.86
-39.43
-44.73
-50.22
-54.99
-57.93
-58.02
-54.66
-47.89
-38.43
-27.45
-16.22
-5.73
3.43
11.10
17.25
21.88
24.99
26.57
26.86
26.28
25.43
24.84
24.85
25.41
26.26
26.96
27.13
26.60
25.42
23.79
21.92
19.91
17.63
14.78
11.04
6.25
0.61
-5.40
-11.12
-16.02
-19.94
-23.12
-26.10
-29.45
-33.56
-38.51
-44.10
-49.87
-55.21
-59.40
-61.63
-61.18
-57.61
-51.00
-42.02
-31.78
-21.47
-12.04
-3.92
2.86
8.49
13.13
16.74
19.14
20.32
20.52
20.32
20.37
21.17
22.78
24.85
26.81
28.10
28.48
28.00
26.93
25.56
24.04
22.33
20.28
17.77
14.81
11.51
8.08
4.71
1.45
-1.72
-4.97
-8.44
-12.26
-16.49
-21.21
-26.48
-32.30
-38.44
-44.38
-49.27
-52.09
-51.98
-48.54
-42.00
-33.16
-23.17
-13.14
-3.93
4.01
10.52
15.58
19.23
21.48
22.42
22.30
21.54
20.71
20.34
20.73
21.87
23.41
24.87
25.77
25.85
25.09
23.69
21.89
19.86
17.64
15.17
12.37
9.24
5.90
2.55
-0.62
-3.47
-6.01
-8.40
-10.91
-13.83
-17.41
-21.76
-26.90
-32.70
-38.83
-44.74
-49.62
-52.56
-52.70
-49.62
-43.46
-34.97
-25.27
-15.60
-6.97
-0.07
4.82
7.72
8.87
8.67
7.60
6.15
4.72
3.56
2.72
2.14
1.68
1.27
0.89
0.66
0.75
1.37
2.63
4.45
6.53
8.36
9.39
9.23
7.94
6.12
4.72
4.76
6.86
10.91
16.12
21.33
25.56
28.37
29.94
30.74
31.15
31.22
30.68
29.27
27.06
24.48
22.20
20.73
20.27
20.61
21.43
22.50
23.78
25.37
27.28
29.28
30.90
31.65
31.18
29.46
26.85
23.91
21.26
19.31
18.16
17.66
17.42
17.12
16.49
15.45
13.98
12.06
9.62
6.61
3.02
-1.04
-5.32
-9.55
-13.51
-17.08
-20.26
-23.14
-25.80
-28.38
-31.04
-34.02
-37.52
-41.65
-46.28
-50.91
-54.72
-56.70
-56.00
-52.20
-45.51
-36.78
-27.15
-17.74
-9.30
-2.14
3.78
8.56
12.25
14.74
15.99
16.15
15.61
14.96
14.73
15.22
16.44
18.09
19.78
21.13
21.93
22.13
21.79
20.97
19.74
18.08
15.97
13.38
10.32
6.89
3.22
-0.49
-4.09
-7.47
-10.60
-13.59
-16.61
-19.93
-23.76
-28.24
-33.37
-38.94
-44.48
-49.28
-52.42
-53.01
-50.45
-44.68
-36.29
-26.38
-16.26
-7.01
0.72
6.75
11.25
14.43
16.49
17.50
17.59
17.05
16.29
15.74
15.72
16.24
17.09
17.87
18.28
18.14
17.55
16.70
15.78
14.82
13.66
12.01
9.62
6.42
2.60
-1.44
-5.25
-8.49
-11.05
-13.07
-14.86
-16.80
-19.24
-22.48
-26.71
-32.02
-38.26
-44.94
-51.17
-55.78
-57.65
-56.05
-50.94
-42.95
-33.26
-23.09
-13.46
-4.96
2.18
7.92
12.33
15.52
17.68
19.12
20.20
21.21
22.29
23.42
24.50
25.50
26.50
27.68
29.15
30.80
32.26
32.98
32.43
30.45
27.32
23.82
20.92
19.49
19.86
21.73
24.28
26.58
28.06
28.83
29.56
31.13
34.05
38.11
42.46
46.05
48.22
49.13
49.73
51.36
55.32
62.53
73.51
88.07
105.10
122.17
135.74
141.97
138.14
124.02
102.16
77.09
53.20
32.94
16.00
0.09
-17.35
-37.42
-58.99
-79.04
-93.82
-100.21
-96.76
-84.30
-65.71
-45.15
-26.71
-13.07
-4.77
-0.40
2.50
5.92
10.73
16.71
23.44
30.81
38.69
45.93
49.80
46.64
33.76
11.54
-15.86
-41.77
-59.85
-66.86
-63.91
-55.51
-47.19
-43.08
-44.79
-51.81
-62.80
-76.77
-93.18
-111.41
-130.06
-146.88
-159.25
-165.13
-163.91
-156.55
-145.07
-131.73
-118.25
-105.48
-93.61
-82.53
-72.17
-62.62
-53.92
-45.97
-38.49
-31.08
-23.41
-15.34
-7.01
1.08
8.14
13.20
15.47
14.73
11.58
7.38
3.84
2.44
3.90
8.01
13.76
19.79
24.86
28.10
29.14
28.11
25.46
21.84
17.95
14.32
11.30
9.09
7.81
7.70
9.11
12.35
17.61
24.64
32.81
41.14
48.54
54.08
57.24
58.13
57.41
56.11
55.27
55.55
57.02
59.24
61.63
63.81
65.80
67.88
70.26
72.92
75.64
78.33
81.51
86.29
94.10
106.11
122.58
142.70
164.77
186.77
206.96
224.23
238.18
248.81
256.28
260.71
262.06
260.01
253.84
242.39
224.22
198.02
163.39
121.51
75.50
30.15
-9.02
-37.04
-50.94
-50.62
-39.10
-21.79
-5.18
4.89
4.95
-5.28
-22.88
-43.05
-60.85
-72.87
-78.01
-77.16
-72.31
-65.56
-58.64
-52.97
-49.99
-51.20
-58.02
-71.41
-91.50
-117.48
-147.39
-178.27
-206.27
-227.29
-237.96
-236.76
-224.68
-205.00
-182.10
-159.89
-140.70
-125.15
-112.83
-103.29
-96.56
-93.05
-92.94
-95.39
-98.04
-97.17
-88.59
-69.27
-39.03
-1.49
36.35
66.11
80.81
77.12
56.03
21.58
-21.29
-68.37
-115.95
-159.61
-193.22
-209.93
-205.02
-178.77
-137.50
-91.37
-49.93
-17.78
6.88
30.06
57.65
91.58
128.99
164.53
193.98
216.58
234.60
250.80
265.58
276.16
278.16
268.31
246.75
217.15
184.76
153.67
124.98
96.77
65.72
29.12
-14.01
-63.00
-116.30
-172.26
-229.33
-285.63
-338.60
-385.26
-422.97
-450.43
-468.02
-477.40
-480.47
-478.31
-470.68
-456.40
-434.20
-403.63
-365.38
-320.88
-271.69
-219.06
-163.91
-107.46
-51.77
0.28
45.51
81.73
108.80
128.81
145.25
161.30
178.39
195.59
210.27
219.60
222.04
218.04
209.62
199.33
189.06
179.52
170.49
161.45
152.27
143.54
136.25
131.22
128.68
128.20
128.95
130.18
131.26
131.49
129.76
124.56
114.40
98.67
78.31
55.84
34.70
18.12
8.03
4.56
6.25
10.70
15.46
18.72
19.78
19.00
17.57
17.01
18.62
23.02
29.95
38.37
46.77
53.58
57.47
57.59
53.71
46.22
36.22
25.32
15.26
7.49
2.64
0.37
-0.54
-1.62
-4.26
-9.17
-16.33
-25.11
-34.56
-43.75
-51.81
-57.99
-61.66
-62.44
-60.35
-55.97
-50.34
-44.66
-39.87
-36.22
-33.25
-30.06
-25.84
-20.58
-15.30
-11.82
-12.03
-17.07
-26.76
-39.58
-53.31
-65.86
-76.00
-83.70
-89.71
-95.05
-100.31
-105.42
-109.78
-112.75
-114.20
-114.81
-115.88
-118.84
-124.57
-133.08
-143.56
-154.74
-165.18
-173.10
-176.20
-171.80
-157.74
-133.85
-103.04
-71.11
-44.97
-29.91
-27.46
-34.96
-47.09
-58.37
-65.29
-66.78
-63.17
-54.62
-40.33
-19.14
8.86
41.10
72.69
98.04
113.23
117.82
115.46
112.66
116.59
132.72
163.03
205.42
254.24
301.89
340.84
365.42
373.09
364.56
343.11
313.14
278.65
242.46
206.19
170.71
136.69
104.80
75.50
48.87
24.50
1.77
-19.81
-40.28
-59.30
-76.41
-91.30
-104.09
-115.29
-125.60
-135.66
-145.79
-155.80
-164.83
-171.26
-173.00
-168.09
-155.57
-136.12
-112.14
-86.89
-63.42
-43.44
-26.95
-12.77
0.42
13.16
24.82
34.16
40.10
42.41
41.69
38.96
35.00
30.01
23.88
16.63
8.75
1.28
-4.67
-8.38
-9.87
-9.78
-9.09
-8.63
-8.92
-10.07
-11.97
-14.49
-17.45
-20.71
-24.11
-27.44
-30.52
-33.20
-35.38
-37.04
-38.26
-39.18
-40.09
-41.25
-42.83
-44.84
-47.06
-49.13
-50.66
-51.43
-51.47
-51.14
-50.97
-51.56
-53.31
-56.23
-59.91
-63.51
-66.09
-66.88
-65.62
-62.62
-58.60
-54.43
-50.73
-47.72
-45.26
-43.11
-41.07
-39.14
-37.38
-35.68
-33.72
-31.19
-28.09
-24.80
-21.82
-19.18
-16.05
-10.76
-1.63
12.07
29.43
48.09
65.25
78.79
88.05
93.60
96.41
96.99
95.10
90.26
82.52
73.00
63.63
56.26
51.73
49.59
48.43
46.59
42.86
36.69
28.04
17.08
4.07
-10.45
-25.68
-40.62
-54.49
-67.05
-78.77
-90.54
-103.13
-116.89
-131.57
-146.54
-160.96
-173.87
-184.16
-190.69
-192.57
-189.57
-182.32
-172.08
-160.15
-147.27
-133.36
-117.75
-99.67
-78.79
-55.43
-30.47
-5.01
19.81
42.89
63.30
80.27
93.43
102.94
109.40
113.68
116.49
118.24
119.09
119.04
118.15
116.47
114.01
110.66
106.26
100.82
94.59
88.08
81.82
76.11
70.86
65.70
60.25
54.29
47.95
41.54
35.37
29.51
23.74
17.70
11.02
3.59
-4.32
-12.00
-18.44
-22.50
-23.21
-20.11
-13.29
-3.55
7.96
19.99
31.55
42.09
51.37
59.31
65.74
70.25
72.34
71.64
68.24
62.76
56.29
50.01
44.81
40.94
38.02
35.19
31.54
26.56
20.33
13.45
6.78
1.03
-3.54
-7.12
-10.17
-13.11
-16.06
-18.80
-20.93
-22.07
-22.05
-20.95
-19.08
-16.93
-15.06
-14.10
-14.43
-16.04
-18.22
-19.63
-18.61
-13.70
-4.15
9.77
26.92
45.72
64.67
82.76
99.63
115.36
130.16
143.98
156.35
166.34
172.70
174.07
169.19
157.12
137.56
111.01
78.91
43.51
7.53
-26.33
-55.90
-80.02
-98.66
-112.83
-124.25
-134.84
-146.24
-159.23
-173.55
-187.87
-200.26
-208.89
-212.65
-211.43
-205.97
-197.48
-187.23
-176.32
-165.60
-155.67
-146.73
-138.39
-129.65
-119.13
-105.67
-88.97
-69.95
-50.61
-33.30
-19.67
-10.05
-3.27
2.74
10.01
19.61
31.36
44.05
56.15
66.43
74.20
79.23
81.42
80.63
76.77
70.08
61.33
51.83
43.02
35.99
31.11
27.91
25.32
22.02
16.93
9.55
0.11
-10.52
-21.18
-30.85
-38.99
-45.68
-51.53
-57.35
-63.88
-71.63
-80.68
-90.73
-101.00
-110.19
-116.62
-118.52
-114.59
-104.42
-88.81
-69.57
-49.05
-29.53
-12.67
0.64
10.20
16.25
19.27
19.97
19.26
18.19
17.79
18.73
21.11
24.48
28.10
31.25
33.51
34.78
35.21
34.90
34.00
32.57
30.73
28.64
26.39
23.95
21.18
17.91
14.08
9.81
5.34
0.83
-3.74
-8.66
-14.41
-21.50
-30.18
-40.28
-51.07
-61.26
-69.13
-72.90
-71.20
-63.47
-50.20
-32.79
-13.19
6.75
25.61
42.60
57.41
69.99
80.27
88.17
93.72
97.26
99.43
101.12
103.11
105.83
109.17
112.56
115.29
116.79
116.85
115.68
113.74
111.41
108.86
105.95
102.38
97.83
92.21
85.70
78.67
71.59
64.80
58.45
52.45
46.53
40.29
33.32
25.22
15.68
4.63
-7.65
-20.33
-32.00
-40.86
-45.16
-43.72
-36.38
-24.14
-8.85
7.45
23.14
37.34
49.90
60.95
70.52
78.36
84.05
87.38
88.57
88.30
87.46
86.78
86.59
86.80
87.06
87.05
86.58
85.58
84.04
81.90
79.08
75.52
71.27
66.49
61.36
56.00
50.40
44.52
38.35
31.99
25.67
19.66
14.09
8.86
3.64
-2.00
-8.52
-16.24
-25.23
-35.18
-45.32
-54.44
-60.96
-63.37
-60.69
-52.75
-40.39
-25.19
-9.02
6.50
20.32
32.04
41.67
49.34
55.16
59.15
61.38
62.16
62.00
61.53
61.31
61.53
62.07
62.51
62.40
61.42
59.54
56.90
53.75
50.26
46.56
42.69
38.67
34.52
30.17
25.56
20.60
15.29
9.74
4.20
-1.06
-5.92
-10.50
-15.13
-20.27
-26.31
-33.51
-41.92
-51.30
-60.98
-69.87
-76.42
-79.04
-76.51
-68.50
-55.73
-39.85
-22.87
-6.52
8.10
20.61
31.08
39.63
46.22
50.81
53.44
54.47
54.58
54.50
54.74
55.44
56.41
57.27
57.71
57.57
56.88
55.70
54.05
51.83
48.88
45.11
40.59
35.57
30.40
25.45
20.86
16.58
12.33
7.83
2.87
-2.52
-8.11
-13.58
-18.71
-23.45
-27.99
-32.72
-38.12
-44.68
-52.67
-61.83
-71.27
-79.37
-84.21
-84.14
-78.36
-67.29
-52.45
-35.91
-19.65
-5.02
7.40
17.61
25.84
32.25
36.94
39.97
41.58
42.18
42.31
42.44
42.81
43.42
44.08
44.54
44.67
44.44
43.89
43.04
41.80
39.98
37.39
33.93
29.70
24.99
20.18
15.61
11.43
7.60
3.89
0.03
-4.20
-8.81
-13.68
-18.55
-23.23
-27.64
-31.90
-36.32
-41.36
-47.41
-54.61
-62.62
-70.44
-76.63
-79.55
-77.98
-71.50
-60.73
-47.16
-32.61
-18.74
-6.61
3.42
11.53
18.10
23.51
28.00
31.75
34.92
37.75
40.48
43.33
46.37
49.51
52.55
55.24
57.31
58.50
58.57
57.32
54.68
50.81
46.16
41.32
36.84
32.98
29.55
25.98
21.59
15.95
9.05
1.35
-6.53
-14.02
-20.84
-26.95
-32.46
-37.58
-42.56
-47.74
-53.43
-59.82
-66.57
-72.77
-76.98
-77.71
-73.94
-65.61
-53.71
-39.88
-25.82
-12.72
-1.02
9.44
18.97
27.69
35.30
41.33
45.47
47.80
48.88
49.42
49.96
50.52
50.74
50.16
48.66
46.67
45.06
44.77
46.29
49.39
53.18
56.49
58.29
58.06
55.79
51.82
46.57
40.36
33.37
25.62
17.08
7.66
-2.81
-14.58
-27.83
-42.48
-58.08
-73.66
-87.81
-98.92
-105.53
-106.81
-102.91
-95.16
-85.70
-76.84
-70.31
-66.66
-65.24
-64.62
-63.30
-60.36
-55.74
-50.02
-44.09
-38.62
-33.93
-30.01
-26.74
-23.96
-21.64
-19.69
-17.94
-16.05
-13.62
-10.28
-5.90
-0.68
4.83
9.86
13.60
15.45
15.17
12.99
9.43
5.16
0.69
-3.79
-8.41
-13.49
-19.31
-25.99
-33.43
-41.49
-50.01
-59.00
-68.39
-77.96
-87.08
-94.75
-99.74
-100.91
-97.63
-90.01
-78.94
-65.84
-52.29
-39.60
-28.57
-19.41
-11.95
-5.86
-0.92
2.99
5.87
7.74
8.79
9.34
9.81
10.56
11.77
13.38
15.10
16.56
17.40
17.44
16.69
15.30
13.52
11.57
9.61
7.71
5.89
4.12
2.33
0.44
-1.64
-3.98
-6.57
-9.32
-12.07
-14.70
-17.15
-19.54
-22.14
-25.29
-29.25
-34.08
-39.42
-44.43
-47.89
-48.48
-45.16
-37.59
-26.32
-12.70
1.52
14.74
25.89
34.58
40.93
45.26
47.81
48.61
47.63
44.96
41.00
36.45
32.12
28.65
26.28
24.80
23.62
22.06
19.62
16.15
11.86
7.16
2.41
-2.17
-6.55
-10.85
-15.07
-19.09
-22.65
-25.47
-27.41
-28.57
-29.31
-30.07
-31.30
-33.38
-36.56
-41.02
-46.74
-53.36
-60.10
-65.73
-68.83
-68.20
-63.28
-54.34
-42.43
-29.07
-15.77
-3.72
6.41
14.45
20.47
24.70
27.33
28.54
28.55
27.71
26.45
25.24
24.45
24.24
24.47
24.81
24.88
24.38
23.23
21.57
19.62
17.60
15.62
13.61
11.42
8.86
5.81
2.24
-1.76
-5.99
-10.17
-13.98
-17.17
-19.63
-21.48
-23.05
-24.85
-27.43
-31.20
-36.34
-42.54
-48.97
-54.32
-57.03
-55.77
-49.88
-39.74
-26.68
-12.64
0.53
11.62
20.24
26.67
31.47
35.05
37.56
38.96
39.32
38.96
38.43
38.27
38.81
40.00
41.45
42.64
43.14
42.81
41.77
40.31
38.63
36.79
34.61
31.84
28.26
23.84
18.72
13.24
7.74
2.55
-2.10
-6.11
-9.55
-12.68
-15.86
-19.53
-23.98
-29.26
-35.15
-41.08
-46.27
-49.86
-51.02
-49.21
-44.32
-36.76
-27.44
-17.53
-8.18
-0.23
5.93
10.26
12.96
14.23
14.22
13.12
11.24
9.15
7.55
7.06
7.96
9.96
12.28
13.96
14.21
12.77
9.95
6.43
2.92
-0.17
-2.92
-5.73
-9.08
-13.23
-18.07
-23.21
-28.15
-32.55
-36.37
-39.89
-43.61
-48.01
-53.41
-59.73
-66.36
-72.25
-76.04
-76.47
-72.80
-65.13
-54.40
-42.07
-29.68
-18.36
-8.65
-0.50
6.33
12.01
16.52
19.69
21.38
21.71
21.08
20.08
19.23
18.82
18.78
18.80
18.49
17.60
16.08
14.05
11.68
9.03
6.01
2.43
-1.93
-7.13
-13.04
-19.29
-25.35
-30.67
-34.88
-37.86
-39.83
-41.26
-42.74
-44.85
-47.92
-51.92
-56.34
-60.23
-62.27
-61.13
-55.88
-46.29
-33.09
-17.63
-1.56
13.73
27.43
39.28
49.34
57.66
64.18
68.70
71.22
72.05
71.85
71.46
71.49
72.14
73.08
73.68
73.27
71.43
68.18
63.94
59.36
55.08
51.52
48.65
46.15
43.42
39.93
35.45
30.12
24.43
18.98
14.25
10.31
6.89
3.48
-0.49
-5.42
-11.50
-18.52
-25.87
-32.52
-37.18
-38.65
-36.25
-30.09
-21.20
-11.10
-1.36
6.97
13.54
18.58
22.51
25.54
27.55
28.24
27.45
25.44
22.89
20.64
19.31
18.98
19.22
19.27
18.45
16.46
13.43
9.79
5.96
2.09
-1.99
-6.65
-12.16
-18.52
-25.33
-31.95
-37.75
-42.45
-46.21
-49.61
-53.39
-58.17
-64.23
-71.40
-79.16
-86.62
-92.66
-96.08
-95.76
-91.04
-81.93
-69.29
-54.59
-39.54
-25.57
-13.46
-3.44
4.64
10.93
15.46
18.20
19.23
19.01
18.24
17.75
18.11
19.47
21.53
23.68
25.32
26.03
25.72
24.60
23.04
21.40
19.89
18.45
16.81
14.63
11.66
7.95
3.82
-0.23
-3.78
-6.67
-9.03
-11.32
-14.09
-17.90
-23.13
-29.88
-37.88
-46.31
-53.91
-59.15
-60.60
-57.41
-49.64
-38.25
-24.85
-11.17
1.41
12.15
20.87
27.76
33.05
36.86
39.24
40.26
40.19
39.50
38.76
38.42
38.65
39.30
39.97
40.22
39.75
38.50
36.63
34.46
32.26
30.21
28.30
26.35
24.09
21.24
17.67
13.43
8.78
4.09
-0.30
-4.23
-7.82
-11.44
-15.52
-20.47
-26.52
-33.60
-41.35
-48.99
-55.37
-59.18
-59.19
-54.73
-45.94
-33.79
-19.81
-5.62
7.53
18.97
28.55
36.35
42.41
46.63
48.95
49.46
48.65
47.26
46.11
45.78
46.40
47.67
48.99
49.80
49.78
48.92
47.44
45.60
43.56
41.32
38.77
35.75
32.20
28.18
23.92
19.70
15.84
12.47
9.57
6.88
4.03
0.70
-3.41
-8.45
-14.46
-21.32
-28.61
-35.50
-40.79
-43.11
-41.31
-34.92
-24.35
-10.87
3.83
18.17
31.09
42.09
51.17
58.43
63.85
67.36
68.89
68.57
66.73
63.77
60.00
55.53
50.28
44.18
37.29
29.97
22.78
16.25
10.71
6.15
2.24
-1.59
-5.93
-11.21
-17.54
-24.69
-32.10
-39.16
-45.33
-50.42
-54.59
-58.22
-61.76
-65.55
-69.78
-74.48
-79.68
-85.41
-91.50
-97.42
-102.06
-103.95
-101.68
-94.51
-82.75
-67.77
-51.53
-35.88
-21.97
-10.11
-0.00
8.81
16.56
23.14
28.26
31.77
33.88
35.08
36.00
37.12
38.60
40.25
41.71
42.63
42.83
42.29
41.10
39.38
37.18
34.51
31.42
28.01
24.48
20.98
17.58
14.20
10.70
6.99
3.11
-0.78
-4.50
-7.96
-11.26
-14.67
-18.51
-23.07
-28.50
-34.74
-41.44
-47.89
-53.02
-55.57
-54.46
-49.18
-40.03
-28.15
-15.14
-2.58
8.39
17.26
24.05
29.02
32.39
34.28
34.82
34.27
33.13
31.97
31.33
31.41
32.10
33.01
33.63
33.62
32.82
31.31
29.28
26.98
24.55
22.06
19.47
16.70
13.64
10.22
6.44
2.42
-1.64
-5.50
-8.96
-11.95
-14.55
-17.02
-19.70
-22.95
-26.98
-31.79
-37.06
-42.06
-45.79
-47.13
-45.13
-39.39
-30.21
-18.62
-6.03
6.17
16.98
25.99
33.23
38.94
43.24
46.13
47.57
47.69
46.91
45.95
45.54
46.18
47.90
50.30
52.71
54.46
55.09
54.46
52.62
49.75
46.06
41.80
37.31
32.91
28.80
24.87
20.70
15.71
9.45
1.88
-6.54
-15.06
-22.93
-29.72
-35.40
-40.29
-44.90
-49.72
-55.12
-61.15
-67.38
-72.81
-76.04
-75.60
-70.58
-61.08
-48.34
-34.39
-21.44
-11.14
-4.24
-0.54
0.72
0.42
-0.82
-2.63
-4.81
-7.08
-8.97
-9.93
-9.51
-7.62
-4.56
-0.95
2.48
5.18
6.92
7.70
7.68
6.98
5.66
3.76
1.36
-1.36
-4.15
-6.75
-8.98
-10.81
-12.29
-13.54
-14.71
-15.94
-17.30
-18.87
-20.70
-22.91
-25.61
-28.93
-32.77
-36.79
-40.31
-42.41
-42.21
-39.14
-33.16
-24.82
-15.10
-5.16
3.98
11.66
17.57
21.78
24.53
26.11
26.82
26.90
26.55
26.00
25.47
25.19
25.33
25.84
26.54
27.10
27.20
26.61
25.32
23.50
21.41
19.22
16.95
14.45
11.53
8.14
4.40
0.63
-2.83
-5.77
-8.12
-9.98
-11.58
-13.12
-14.87
-17.02
-19.81
-23.33
-27.48
-31.88
-35.81
-38.33
-38.53
-35.83
-30.19
-22.23
-13.06
-3.97
3.91
9.97
14.10
16.59
17.81
18.10
17.67
16.69
15.43
14.28
13.60
13.56
14.06
14.75
15.18
15.02
14.24
13.04
11.74
10.54
9.40
8.03
6.08
3.32
-0.10
-3.68
-6.74
-8.74
-9.62
-9.88
-10.46
-12.34
-16.19
-22.08
-29.42
-37.19
-44.18
-49.28
-51.65
-50.89
-47.00
-40.46
-32.17
-23.32
-15.18
-8.89
-5.17
-4.29
-6.05
-9.98
-15.47
-21.97
-29.01
-36.18
-43.13
-49.58
-55.36
-60.50
-65.21
-69.83
-74.62
-79.62
-84.50
-88.67
-91.54
-92.84
-92.77
-92.02
-91.46
-91.84
-93.47
-96.19
-99.46
-102.62
-105.00
-106.04
-105.25
-102.20
-96.75
-89.07
-79.76
-69.69
-59.62
-49.96
-40.58
-30.96
-20.56
-9.18
2.84
14.80
25.92
35.62
43.67
50.03
54.69
57.57
58.56
57.68
55.22
51.78
48.06
44.62
41.63
38.95
36.24
33.18
29.71
25.99
22.33
18.96
16.00
13.36
10.92
8.58
6.36
4.47
3.10
2.45
2.53
3.13
3.87
4.23
3.71
1.88
-1.40
-5.90
-11.02
-15.79
-19.06
-19.83
-17.54
-12.22
-4.55
4.43
13.61
22.12
29.46
35.40
39.87
42.79
44.11
43.87
42.29
39.88
37.31
35.19
33.95
33.65
34.06
34.73
35.26
35.41
35.16
34.65
34.02
33.24
32.13
30.40
27.85
24.55
20.86
17.36
14.58
12.84
12.08
11.88
11.56
10.38
7.77
3.48
-2.15
-8.20
-13.28
-15.79
-14.38
-8.38
2.01
15.70
31.07
46.38
60.23
71.73
80.49
86.38
89.42
89.65
87.27
82.69
76.63
69.90
63.23
57.04
51.34
45.85
40.26
34.39
28.40
22.59
17.30
12.61
8.34
4.07
-0.62
-5.89
-11.65
-17.53
-23.13
-28.25
-33.00
-37.79
-43.13
-49.43
-56.74
-64.72
-72.60
-79.31
-83.73
-84.87
-82.19
-75.75
-66.19
-54.57
-42.08
-29.74
-18.33
-8.33
-0.03
6.41
10.93
13.67
15.03
15.65
16.26
17.45
19.45
22.09
24.90
27.35
29.05
29.90
30.10
29.91
29.56
29.06
28.25
26.89
24.92
22.51
20.11
18.38
17.97
19.31
22.39
26.62
30.93
33.91
34.27
31.19
24.67
15.57
5.53
-3.45
-9.57
-11.75
-9.97
-5.18
1.10
7.34
12.50
16.22
18.64
19.97
20.24
19.24
16.84
13.32
9.48
6.45
5.18
6.03
8.63
12.17
15.77
18.92
21.57
23.94
26.27
28.63
30.91
32.95
34.65
36.07
37.31
38.44
39.38
40.01
40.20
39.91
39.25
38.38
37.41
36.35
35.09
33.44
31.25
28.45
25.23
22.07
19.84
19.53
22.06
27.88
36.70
47.51
58.74
68.73
76.07
79.96
80.22
77.22
71.60
64.14
55.52
46.40
37.37
28.99
21.79
16.06
11.90
9.14
7.53
6.94
7.46
9.42
13.15
18.79
26.05
34.26
42.50
49.85
55.56
59.21
60.65
60.01
57.62
53.87
49.14
43.71
37.73
31.30
24.41
17.01
8.92
-0.10
-10.20
-21.16
-32.17
-41.88
-48.71
-51.41
-49.60
-43.92
-35.83
-27.00
-18.79
-11.88
-6.37
-2.10
1.02
2.92
3.41
2.45
0.23
-2.75
-5.91
-8.74
-10.93
-12.45
-13.47
-14.25
-15.06
-16.11
-17.50
-19.27
-21.43
-24.04
-27.20
-31.06
-35.69
-41.03
-46.93
-53.22
-59.81
-66.78
-74.25
-82.34
-90.93
-99.75
-108.44
-116.69
-124.47
-131.95
-139.52
-147.55
-156.27
-165.61
-175.15
-184.05
-191.13
-195.05
-194.59
-188.87
-177.72
-161.57
-141.39
-118.35
-93.54
-67.83
-41.97
-16.69
7.09
28.40
46.38
60.48
70.66
77.28
80.87
81.97
81.04
78.62
75.45
72.49
70.75
70.87
72.75
75.57
77.97
78.57
76.49
71.53
64.12
55.05
45.11
34.92
24.94
15.51
7.00
-0.22
-5.85
-9.68
-11.74
-12.27
-11.68
-10.53
-9.45
-9.10
-10.00
-12.43
-16.21
-20.62
-24.56
-26.68
-25.89
-21.66
-14.19
-4.38
6.50
17.17
26.65
34.41
40.30
44.46
47.10
48.45
48.70
48.04
46.72
45.02
43.27
41.77
40.67
40.01
39.62
39.27
38.70
37.73
36.28
34.36
32.03
29.36
26.43
23.31
20.03
16.56
12.88
8.96
4.83
0.56
-3.73
-7.96
-12.05
-15.99
-19.82
-23.59
-27.40
-31.47
-36.03
-41.29
-47.15
-53.11
-58.21
-61.26
-61.13
-57.21
-49.60
-39.11
-26.96
-14.45
-2.60
7.96
17.01
24.56
30.69
35.46
38.91
41.11
42.23
42.53
42.37
42.05
41.78
41.55
41.21
40.60
39.65
38.43
37.05
35.58
33.89
31.77
29.03
25.66
21.90
18.08
14.48
11.11
7.80
4.24
0.28
-4.06
-8.53
-12.83
-16.74
-20.23
-23.47
-26.75
-30.44
-34.90
-40.39
-46.91
-54.07
-60.99
-66.37
-68.84
-67.33
-61.51
-51.95
-39.91
-27.02
-14.70
-3.88
5.16
12.53
18.53
23.41
27.28
30.15
32.08
33.26
33.95
34.41
34.85
35.30
35.72
36.01
36.12
36.07
35.90
35.64
35.21
34.44
33.11
31.11
28.48
25.47
22.34
19.32
16.45
13.58
10.55
7.29
3.92
0.67
-2.26
-4.81
-7.17
-9.64
-12.48
-15.85
-19.82
-24.45
-29.77
-35.75
-41.96
-47.49
-51.03
-51.13
-46.83
-38.02
-25.61
-11.26
3.17
16.14
26.90
35.46
42.34
48.19
53.43
58.24
62.63
66.64
70.41
73.95
76.84
78.22
77.05
72.64
65.10
55.34
44.58
33.63
22.44
10.26
-3.76
-19.72
-36.63
-52.59
-65.59
-74.26
-78.33
-78.54
-76.19
-72.60
-68.74
-65.10
-61.82
-58.84
-56.13
-53.75
-51.88
-50.72
-50.47
-51.27
-53.14
-55.99
-59.52
-63.08
-65.71
-66.21
-63.52
-57.10
-47.15
-34.67
-21.18
-8.17
3.20
12.37
19.30
24.26
27.59
29.59
30.54
30.78
30.67
30.62
30.90
31.60
32.57
33.55
34.22
34.46
34.26
33.74
33.02
32.09
30.84
29.09
26.71
23.79
20.58
17.42
14.53
11.96
9.51
6.83
3.65
-0.11
-4.31
-8.60
-12.63
-16.20
-19.33
-22.29
-25.46
-29.27
-34.00
-39.66
-45.86
-51.70
-55.93
-57.22
-54.65
-48.04
-38.15
-26.39
-14.42
-3.56
5.50
12.70
18.35
22.75
26.03
28.15
29.07
28.95
28.16
27.22
26.58
26.42
26.69
27.15
27.54
27.70
27.64
27.38
26.95
26.21
24.96
23.00
20.34
17.23
14.07
11.23
8.92
6.99
5.11
2.90
0.12
-3.20
-6.84
-10.49
-13.90
-17.03
-19.96
-22.95
-26.32
-30.36
-35.28
-41.00
-47.05
-52.52
-56.19
-56.90
-53.86
-47.04
-37.15
-25.49
-13.55
-2.64
6.44
13.44
18.48
21.88
23.95
24.88
24.86
24.17
23.16
22.29
21.90
22.15
22.91
23.88
24.69
25.12
25.10
24.73
24.07
23.14
21.84
20.10
17.86
15.21
12.30
9.31
6.35
3.48
0.61
-2.39
-5.60
-8.99
-12.42
-15.74
-18.81
-21.70
-24.62
-27.96
-32.08
-37.19
-43.16
-49.39
-54.87
-58.30
-58.51
-54.76
-47.09
-36.33
-23.89
-11.36
-0.01
9.40
16.70
22.06
25.79
28.10
29.15
29.14
28.38
27.42
26.85
27.20
28.67
31.07
33.88
36.42
38.16
38.82
38.49
37.44
35.95
34.18
32.07
29.47
26.26
22.45
18.24
13.92
9.73
5.84
2.30
-0.95
-3.98
-6.98
-10.25
-14.20
-19.28
-25.79
-33.70
-42.48
-51.08
-58.11
-62.12
-62.06
-57.58
-49.15
-37.98
-25.73
-14.02
-4.05
3.55
8.79
12.01
13.68
14.20
13.84
12.86
11.52
10.16
9.13
8.64
8.70
9.14
9.64
9.93
9.87
9.42
8.67
7.69
6.47
4.95
3.02
0.59
-2.33
-5.67
-9.26
-12.93
-16.50
-19.82
-22.81
-25.50
-28.00
-30.53
-33.32
-36.65
-40.75
-45.77
-51.66
-58.02
-64.02
-68.44
-69.93
-67.40
-60.47
-49.67
-36.35
-22.28
-9.11
2.10
10.95
17.57
22.29
25.42
27.12
27.57
27.05
26.05
25.10
24.66
24.92
25.75
26.82
27.76
28.26
28.17
27.47
26.18
24.39
22.16
19.60
16.78
13.74
10.47
6.91
3.02
-1.14
-5.40
-9.53
-13.34
-16.77
-19.93
-23.06
-26.44
-30.35
-34.99
-40.38
-46.27
-52.03
-56.68
-59.01
-57.93
-52.80
-43.68
-31.36
-17.09
-2.29
11.86
24.56
35.38
44.19
51.06
56.22
60.11
63.36
66.76
70.98
76.41
82.90
89.80
96.07
100.59
102.54
101.65
98.29
93.25
87.42
81.32
74.88
67.41
58.00
45.93
31.10
14.33
-2.80
-18.28
-30.15
-37.01
-38.39
-34.85
-27.95
-19.78
-12.52
-7.83
-6.54
-8.49
-12.63
-17.33
-20.74
-21.23
-17.76
-10.18
0.68
13.11
25.04
34.58
40.53
42.69
41.70
38.71
34.82
30.82
27.12
23.80
20.85
18.31
16.29
14.87
14.06
13.69
13.51
13.25
12.75
12.02
11.20
10.45
9.84
9.24
8.36
6.82
4.40
1.08
-2.87
-7.09
-11.31
-15.53
-20.04
-25.30
-31.73
-39.50
-48.54
-58.54
-69.00
-79.25
-88.34
-95.16
-98.67
-98.23
-93.91
-86.60
-77.70
-68.69
-60.63
-53.96
-48.59
-44.20
-40.52
-37.46
-35.01
-33.16
-31.73
-30.40
-28.80
-26.70
-24.01
-20.90
-17.61
-14.48
-11.76
-9.62
-8.07
-6.98
-6.19
-5.52
-4.94
-4.51
-4.41
-4.79
-5.72
-7.11
-8.74
-10.32
-11.62
-12.53
-13.10
-13.49
-13.97
-14.80
-16.23
-18.43
-21.39
-24.78
-27.90
-29.72
-29.07
-25.10
-17.53
-6.96
5.34
17.72
28.71
37.37
43.40
47.04
48.78
49.05
48.19
46.40
43.90
41.01
38.09
35.54
33.59
32.31
31.53
30.95
30.22
29.09
27.43
25.26
22.68
19.84
16.90
13.97
11.17
8.54
6.12
3.85
1.66
-0.50
-2.67
-4.87
-7.03
-9.06
-10.82
-12.15
-12.94
-13.30
-13.63
-14.53
-16.55
-19.75
-23.50
-26.49
-27.24
-24.68
-18.68
-10.09
-0.32
9.22
17.65
24.74
30.61
35.42
39.00
40.95
40.87
38.69
34.83
30.08
25.34
21.28
18.17
15.92
14.20
12.68
11.13
9.42
7.50
5.30
2.76
-0.17
-3.48
-7.08
-10.87
-14.77
-18.81
-23.03
-27.54
-32.36
-37.43
-42.58
-47.60
-52.27
-56.43
-60.05
-63.28
-66.43
-69.87
-73.74
-77.81
-81.31
-83.02
-81.64
-76.24
-66.66
-53.64
-38.62
-23.24
-8.79
4.07
15.34
25.40
34.69
43.44
51.65
59.23
66.07
72.20
77.69
82.61
87.03
90.99
94.53
97.69
100.46
102.74
104.44
105.48
105.92
105.82
105.32
104.39
102.96
100.98
98.47
95.70
92.99
90.59
88.45
86.16
83.09
78.69
72.69
65.19
56.47
46.69
35.78
23.46
9.71
-4.92
-19.15
-31.37
-40.26
-45.41
-47.55
-48.27
-49.22
-51.51
-55.35
-60.28
-65.75
-71.55
-77.99
-85.60
-94.58
-104.43
-113.94
-121.55
-125.95
-126.57
-123.74
-118.41
-111.70
-104.43
-96.95
-89.17
-80.94
-72.24
-63.27
-54.42
-46.01
-38.26
-31.17
-24.68
-18.76
-13.43
-8.75
-4.82
-1.69
0.56
1.84
2.03
1.03
-1.21
-4.62
-8.99
-13.92
-18.79
-22.74
-24.77
-24.00
-19.97
-12.91
-3.74
6.11
15.15
22.32
27.14
29.74
30.64
30.38
29.34
27.73
25.69
23.44
21.33
19.81
19.23
19.69
21.01
22.71
24.28
25.28
25.50
25.03
24.09
22.92
21.64
20.21
18.53
16.47
13.99
11.15
8.03
4.65
1.00
-3.00
-7.38
-12.03
-16.67
-20.94
-24.50
-27.22
-29.24
-31.08
-33.41
-36.89
-41.80
-47.89
-54.21
-59.43
-62.13
-61.37
-56.98
-49.60
-40.49
-31.03
-22.32
-15.04
-9.34
-5.14
-2.26
-0.57
0.04
-0.30
-1.40
-2.94
-4.57
-5.98
-6.97
-7.53
-7.71
-7.62
-7.30
-6.69
-5.70
-4.30
-2.56
-0.69
1.02
2.28
2.91
2.89
2.38
1.68
1.13
1.02
1.45
2.33
3.36
4.09
4.06
2.91
0.42
-3.30
-7.81
-12.24
-15.41
-16.07
-13.26
-6.68
3.19
15.14
27.61
39.12
48.68
55.87
60.84
63.99
65.76
66.44
66.12
64.82
62.63
59.79
56.69
53.81
51.46
49.67
48.16
46.38
43.81
40.19
35.63
30.59
25.61
21.13
17.31
14.03
11.06
8.18
5.28
2.36
-0.65
-3.90
-7.63
-12.13
-17.67
-24.36
-32.22
-41.12
-50.83
-61.07
-71.36
-81.07
-89.29
-94.95
-96.98
-94.68
-87.97
-77.61
-65.07
-52.06
-40.01
-29.74
-21.29
-14.24
-8.13
-2.71
1.95
5.83
9.11
12.37
16.33
21.56
28.17
35.75
43.51
50.59
56.30
60.20
62.09
61.86
59.52
55.22
49.29
42.19
34.42
26.39
18.34
10.34
2.33
-5.76
-13.97
-22.21
-30.29
-37.90
-44.69
-50.38
-54.94
-58.67
-62.04
-65.42
-68.70
-71.14
-71.48
-68.49
-61.43
-50.43
-36.47
-20.98
-5.46
8.96
21.54
31.94
39.97
45.63
48.97
50.27
50.12
49.37
49.08
50.33
53.88
59.87
67.68
76.05
83.45
88.57
90.61
89.30
84.73
77.10
66.64
53.74
39.09
23.73
8.87
-4.32
-14.99
-22.69
-27.42
-29.53
-29.66
-28.65
-27.36
-26.53
-26.71
-28.22
-31.23
-35.71
-41.20
-46.64
-50.35
-50.49
-45.72
-35.92
-22.42
-7.57
6.14
16.99
24.44
28.99
31.56
32.96
33.49
33.12
31.82
29.73
27.25
24.79
22.54
20.46
18.26
15.68
12.64
9.33
6.09
3.33
1.39
0.48
0.64
1.80
3.70
5.93
7.95
9.25
9.53
8.87
7.78
7.04
7.44
9.51
13.31
18.38
23.81
28.60
31.96
33.71
34.46
35.54
38.59
45.06
55.70
70.25
87.62
106.11
123.93
139.51
151.72
159.87
163.75
163.61
160.13
154.31
147.20
139.56
131.65
123.16
113.45
101.90
88.27
72.80
56.12
38.99
22.09
5.85
-9.64
-24.62
-39.52
-54.74
-70.45
-86.34
-101.70
-115.73
-127.93
-138.47
-148.12
-158.01
-169.38
-183.33
-200.71
-221.69
-245.23
-268.56
-287.16
-295.68
-289.49
-266.53
-228.37
-179.91
-127.78
-78.27
-35.68
-1.85
23.26
40.62
51.28
56.13
56.19
52.84
47.94
43.46
40.97
41.18
43.77
47.62
51.26
53.34
53.06
50.30
45.58
39.87
34.22
29.37
25.56
22.58
19.96
17.28
14.41
11.51
8.89
6.74
4.99
3.30
1.23
-1.51
-4.95
-8.82
-12.86
-17.00
-21.54
-26.90
-33.15
-39.67
-44.99
-47.25
-45.00
-37.92
-27.12
-14.71
-3.10
5.91
11.53
13.83
13.32
10.58
6.08
0.36
-5.85
-11.56
-15.73
-17.65
-17.18
-14.77
-11.24
-7.46
-3.96
-0.78
2.43
6.19
10.85
16.43
22.52
28.45
33.51
37.16
39.16
39.59
38.73
37.00
34.80
32.49
30.38
28.67
27.39
26.29
24.82
22.26
18.04
12.13
5.25
-1.27
-5.96
-7.92
-7.19
-4.86
-2.62
-1.99
-3.71
-7.47
-12.15
-16.38
-19.09
-19.87
-18.86
-16.48
-13.07
-8.86
-4.01
1.06
5.58
8.49
8.79
6.04
0.59
-6.32
-12.99
-17.77
-19.66
-18.72
-16.01
-13.14
-11.66
-12.34
-14.89
-18.07
-20.28
-20.27
-17.71
-13.26
-8.27
-4.20
-2.06
-2.13
-3.90
-6.26
-7.83
-7.27
-3.56
3.70
14.21
26.97
40.41
52.76
62.40
68.32
70.25
68.68
64.63
59.33
53.87
49.01
45.08
42.14
40.01
38.40
36.93
35.14
32.50
28.56
23.12
16.34
8.72
0.87
-6.69
-13.69
-20.12
-26.01
-31.21
-35.32
-37.84
-38.37
-36.94
-33.98
-30.19
-26.28
-22.74
-19.78
-17.56
-16.27
-16.21
-17.69
-20.67
-24.56
-28.21
-30.08
-28.63
-22.86
-12.50
1.81
18.74
36.60
53.72
68.81
81.16
90.64
97.58
102.40
105.43
106.69
106.05
103.44
99.12
93.73
88.14
83.01
78.48
73.88
67.89
58.92
45.71
27.77
5.63
-19.31
-45.18
-70.16
-92.85
-112.47
-128.72
-141.64
-151.37
-158.11
-162.03
-163.39
-162.58
-160.08
-156.43
-152.23
-148.08
-144.62
-142.44
-142.05
-143.66
-147.04
-151.33
-155.01
-156.18
-153.10
-144.82
-131.62
-115.00
-97.17
-80.23
-65.47
-53.20
-42.99
-34.27
-26.79
-20.66
-16.11
-13.08
-11.05
-9.22
-6.84
-3.63
0.16
3.94
7.13
9.44
10.94
11.94
12.74
13.49
14.16
14.66
14.94
15.00
14.95
14.89
14.95
15.30
16.12
17.56
19.68
22.31
25.10
27.58
29.35
30.15
30.02
29.26
28.51
28.65
30.79
35.98
45.04
58.20
75.06
94.67
115.83
137.37
158.39
178.18
196.17
211.82
224.64
234.27
240.59
243.60
243.36
239.78
232.67
221.84
207.28
189.29
168.47
145.69
121.93
98.30
75.92
55.85
38.88
25.30
14.76
6.32
-1.30
-9.32
-18.51
-29.00
-40.33
-51.72
-62.37
-71.77
-79.80
-86.68
-92.81
-98.60
-104.34
-110.16
-116.08
-121.93
-127.33
-131.62
-133.85
-133.11
-128.86
-121.33
-111.62
-101.48
-92.76
-86.83
-84.24
-84.71
-87.54
-92.03
-97.80
-104.81
-113.05
-122.32
-131.97
-140.99
-148.19
-152.36
-152.40
-147.39
-136.67
-120.08
-98.08
-71.83
-43.02
-13.42
15.50
42.93
68.76
93.36
117.11
139.92
160.82
177.76
187.91
188.51
177.92
156.54
127.09
94.01
62.16
35.25
14.87
0.37
-10.20
-18.89
-26.71
-33.30
-37.20
-36.77
-30.99
-19.88
-4.46
13.75
33.14
52.46
70.70
86.93
100.23
109.69
114.83
115.80
113.45
108.99
103.46
97.47
91.10
84.22
76.82
69.13
61.46
53.93
46.30
38.12
29.06
19.18
9.02
-0.70
-9.49
-17.35
-24.72
-32.12
-39.79
-47.46
-54.41
-59.86
-63.37
-64.97
-65.20
-64.82
-64.52
-64.83
-65.96
-67.87
-70.18
-72.09
-72.43
-69.83
-63.20
-52.14
-37.31
-20.27
-3.13
12.18
24.38
33.13
38.80
42.08
43.59
43.69
42.54
40.36
37.55
34.65
32.12
30.14
28.44
26.48
23.68
19.68
14.55
8.65
2.55
-3.23
-8.35
-12.65
-16.14
-18.90
-21.05
-22.75
-24.18
-25.47
-26.68
-27.79
-28.69
-29.29
-29.60
-29.77
-30.08
-30.88
-32.52
-35.25
-39.12
-43.86
-48.78
-52.75
-54.43
-52.64
-46.82
-37.37
-25.60
-13.35
-2.37
6.23
12.17
15.84
17.86
18.73
18.58
17.39
15.18
12.27
9.27
6.91
5.65
5.56
6.29
7.26
7.95
8.13
7.86
7.35
6.79
6.23
5.48
4.32
2.61
0.33
-2.30
-5.01
-7.59
-9.91
-11.97
-13.84
-15.52
-17.05
-18.47
-19.98
-21.93
-24.75
-28.81
-34.11
-40.15
-45.84
-49.75
-50.45
-46.99
-39.20
-27.89
-14.51
-0.84
11.54
21.60
28.91
33.52
35.71
35.82
34.15
31.04
26.92
22.34
17.89
14.02
10.95
8.61
6.74
5.04
3.26
1.25
-1.06
-3.75
-6.93
-10.70
-15.03
-19.73
-24.46
-28.83
-32.49
-35.29
-37.33
-38.88
-40.25
-41.71
-43.25
-44.67
-45.57
-45.61
-44.73
-43.24
-41.67
-40.41
-39.26
-37.14
-32.22
-22.44
-6.39
15.93
42.85
71.36
97.83
118.95
132.34
136.82
132.37
120.05
101.86
80.56
59.25
40.70
26.73
17.80
13.15
11.29
10.75
10.54
10.23
9.80
9.36
8.97
8.70
8.60
8.75
9.13
9.58
9.85
9.66
8.81
7.32
5.29
2.87
0.10
-3.06
-6.80
-11.43
-17.28
-24.69
-33.65
-43.62
-53.37
-61.15
-65.10
-63.96
-57.51
-46.82
-33.82
-20.74
-9.37
-0.64
5.32
8.82
10.31
10.00
8.05
4.69
0.44
-3.93
-7.57
-9.92
-10.90
-10.92
-10.68
-10.82
-11.71
-13.24
-15.10
-16.87
-18.38
-19.73
-21.24
-23.30
-26.11
-29.62
-33.44
-37.06
-39.93
-41.74
-42.50
-42.51
-42.37
-42.76
-44.35
-47.57
-52.52
-58.77
-65.31
-70.66
-73.14
-71.30
-64.39
-52.63
-37.19
-19.86
-2.54
13.21
26.40
36.59
43.71
47.91
49.45
48.79
46.55
43.57
40.66
38.50
37.43
37.39
38.00
38.70
38.94
38.35
36.87
34.69
32.20
29.70
27.24
24.57
21.27
17.02
11.85
6.14
0.53
-4.42
-8.50
-11.92
-15.28
-19.24
-24.39
-31.04
-39.17
-48.35
-57.62
-65.55
-70.33
-70.26
-64.37
-52.83
-37.07
-19.38
-2.14
12.84
24.76
33.60
39.70
43.37
44.63
43.52
40.39
36.14
32.03
29.24
28.40
29.33
31.18
32.83
33.39
32.52
30.44
27.69
24.80
22.02
19.19
15.91
11.80
6.75
1.01
-4.86
-10.24
-14.71
-18.23
-21.21
-24.26
-28.05
-33.08
-39.57
-47.41
-55.98
-64.18
-70.38
-72.79
-69.93
-61.23
-47.32
-29.96
-11.53
5.64
19.91
30.56
37.56
41.26
42.04
40.26
36.39
31.16
25.65
20.99
18.03
16.98
17.35
18.12
18.20
16.92
14.19
10.51
6.57
2.85
-0.62
-4.25
-8.63
-14.14
-20.72
-27.80
-34.52
-40.07
-43.95
-46.21
-47.36
-48.24
-49.75
-52.66
-57.43
-63.98
-71.56
-78.67
-83.19
-82.93
-76.32
-63.01
-44.15
-22.10
0.38
20.91
38.16
51.85
62.37
70.23
75.70
78.79
79.55
78.32
75.86
73.13
70.91
69.57
68.91
68.37
67.34
65.43
62.62
59.19
55.57
52.11
48.94
45.91
42.65
38.70
33.69
27.53
20.44
12.92
5.54
-1.23
-7.24
-12.71
-18.15
-24.18
-31.37
-40.08
-50.30
-61.47
-72.36
-81.10
-85.52
-83.74
-74.83
-59.34
-39.19
-17.19
3.89
22.02
36.26
46.59
53.47
57.39
58.72
57.90
55.61
52.88
50.86
50.45
51.94
54.88
58.38
61.42
63.37
64.10
63.91
63.22
62.28
60.91
58.65
54.96
49.50
42.40
34.23
25.80
17.89
10.94
4.91
-0.66
-6.53
-13.45
-22.00
-32.37
-44.22
-56.54
-67.67
-75.47
-77.89
-73.59
-62.54
-46.18
-27.07
-8.09
8.44
21.22
30.04
35.29
37.54
37.19
34.59
30.28
25.13
20.31
16.87
15.38
15.73
17.16
18.67
19.41
19.01
17.58
15.60
13.57
11.77
10.07
8.01
5.03
0.74
-4.80
-11.09
-17.27
-22.56
-26.57
-29.50
-32.09
-35.38
-40.34
-47.53
-56.87
-67.46
-77.64
-85.22
-87.94
-84.11
-73.19
-56.09
-35.00
-12.72
8.14
25.85
39.77
50.06
57.20
61.54
63.26
62.53
59.81
55.97
52.15
49.31
47.88
47.62
47.80
47.62
46.63
44.88
42.83
41.00
39.58
38.26
36.31
32.95
27.81
21.10
13.65
6.56
0.71
-3.54
-6.56
-9.19
-12.47
-17.34
-24.30
-33.28
-43.47
-53.28
-60.51
-62.82
-58.46
-46.96
-29.44
-8.34
13.30
32.82
48.57
60.07
67.68
72.06
73.78
73.22
70.78
66.99
62.60
58.37
54.86
52.20
50.14
48.17
45.75
42.51
38.40
33.58
28.39
23.13
17.91
12.61
6.88
0.35
-7.15
-15.38
-23.77
-31.60
-38.30
-43.74
-48.26
-52.53
-57.33
-63.29
-70.72
-79.48
-88.88
-97.64
-103.99
-106.08
-102.51
-92.96
-78.45
-61.15
-43.61
-28.08
-15.85
-7.27
-2.02
0.34
0.12
-2.45
-6.97
-12.66
-18.39
-23.09
-26.19
-27.81
-28.77
-30.17
-32.85
-37.06
-42.35
-47.85
-52.64
-56.10
-58.21
-59.47
-60.80
-63.15
-67.31
-73.67
-82.15
-92.33
-103.67
-115.79
-128.59
-142.35
-157.46
-174.04
-191.61
-208.82
-223.48
-233.03
-235.13
-228.35
-212.69
-189.67
-161.94
-132.55
-104.12
-78.30
-55.54
-35.54
-17.73
-1.75
12.44
24.83
35.64
45.52
55.29
65.53
76.21
86.64
95.78
102.81
107.49
110.18
111.64
112.47
112.80
112.24
110.11
105.81
99.12
90.29
79.93
68.74
57.30
45.91
34.60
23.24
11.62
-0.47
-13.20
-26.55
-40.13
-52.97
-63.49
-69.76
-70.06
-63.50
-50.48
-32.67
-12.54
7.39
25.20
39.90
51.30
59.64
65.23
68.33
69.19
68.32
66.61
65.19
65.09
66.82
70.12
74.04
77.39
79.19
79.03
77.07
73.75
69.38
63.95
57.15
48.71
38.75
27.85
16.87
6.61
-2.48
-10.50
-18.02
-25.80
-34.69
-45.26
-57.57
-71.01
-84.13
-94.83
-100.84
-100.36
-92.65
-78.29
-58.92
-36.76
-13.94
7.89
27.69
44.86
59.12
70.46
79.17
85.92
91.67
97.47
104.07
111.70
120.03
128.24
135.42
140.83
144.09
145.18
144.21
141.27
136.26
128.88
118.87
106.24
91.46
75.50
59.62
45.00
32.35
21.73
12.56
3.87
-5.40
-15.95
-27.91
-40.57
-52.47
-61.62
-66.04
-64.42
-56.58
-43.64
-27.66
-11.03
4.29
17.22
27.53
35.56
41.85
46.78
50.60
53.49
55.60
57.10
58.14
58.82
59.19
59.20
58.70
57.39
54.87
50.77
44.89
37.36
28.65
19.44
10.41
2.00
-5.62
-12.51
-18.81
-24.63
-30.01
-35.06
-40.07
-45.68
-52.68
-61.65
-72.46
-83.89
-93.68
-99.15
-98.07
-89.54
-74.32
-54.63
-33.26
-12.80
5.10
19.68
30.89
38.88
43.84
45.99
45.76
43.92
41.52
39.61
38.86
39.41
40.78
42.21
42.89
42.32
40.45
37.56
34.12
30.50
26.90
23.32
19.74
16.34
13.55
11.92
11.80
13.02
14.78
15.77
14.69
10.72
3.98
-4.35
-12.18
-16.90
-15.96
-7.53
9.09
33.11
62.41
94.09
125.17
153.35
177.35
196.86
212.08
223.17
229.93
231.85
228.52
220.01
207.18
191.56
175.07
159.54
146.45
136.67
130.44
127.20
125.55
123.35
118.18
108.08
92.35
71.92
49.14
26.94
7.85
-6.77
-16.85
-23.33
-27.60
-31.14
-35.30
-41.16
-49.27
-59.32
-69.74
-77.81
-80.38
-74.90
-60.52
-38.59
-12.37
13.96
36.55
52.87
62.07
64.70
62.00
55.19
44.92
31.31
14.21
-6.23
-29.20
-53.10
-75.80
-95.15
-109.47
-117.96
-120.72
-118.62
-112.83
-104.54
-94.75
-84.17
-73.40
-63.09
-54.05
-47.21
-43.49
-43.38
-46.65
-52.21
-58.37
-63.29
-65.55
-64.53
-60.53
-54.62
-48.16
-42.50
-38.54
-36.78
-37.39
-40.45
-46.02
-53.99
-63.80
-74.26
-83.61
-89.99
-92.08
-89.59
-83.27
-74.53
-64.97
-55.93
-48.46
-43.40
-41.47
-43.15
-48.44
-56.73
-66.90
-77.58
-87.43
-95.24
-100.08
-101.33
-98.92
-93.56
-86.61
-79.68
-74.00
-69.91
-66.83
-63.75
-59.94
-55.56
-51.74
-50.22
-52.65
-59.89
-71.54
-86.00
-100.91
-114.03
-124.01
-130.98
-136.46
-142.66
-151.50
-163.65
-178.22
-193.05
-205.53
-213.48
-215.72
-212.19
-203.68
-191.43
-176.71
-160.60
-143.84
-126.89
-110.06
-93.69
-78.23
-64.26
-52.29
-42.57
-35.14
-29.83
-26.46
-24.85
-24.77
-25.77
-27.08
-27.83
-27.35
-25.61
-23.29
-21.49
-21.23
-22.83
-25.76
-28.81
-30.59
-30.01
-26.56
-20.20
-11.20
0.08
13.21
27.65
42.69
57.57
71.64
84.55
96.28
107.00
116.89
126.10
134.76
143.09
151.46
160.27
169.86
180.38
191.77
203.83
216.27
228.93
241.73
254.75
268.22
282.57
298.27
315.49
333.87
352.15
368.28
379.79
384.30
380.00
365.87
341.78
308.38
267.14
220.38
171.07
122.42
77.12
36.92
2.60
-25.43
-46.64
-60.17
-65.46
-63.10
-55.25
-45.28
-36.44
-30.71
-28.23
-27.90
-28.50
-29.56
-31.55
-35.13
-40.33
-46.24
-51.35
-54.41
-55.03
-53.68
-51.30
-48.72
-46.44
-44.74
-43.93
-44.43
-46.64
-50.61
-55.86
-61.44
-66.36
-69.86
-71.76
-72.39
-72.31
-71.92
-71.17
-69.54
-66.17
-60.38
-51.94
-41.33
-29.61
-18.11
-8.22
-1.14
2.11
0.77
-5.49
-16.31
-30.48
-46.04
-60.66
-72.23
-79.33
-81.46
-78.85
-72.28
-62.60
-50.58
-36.80
-21.77
-6.11
9.24
22.92
33.29
38.95
39.26
34.77
27.04
18.07
9.44
1.63
