1502349056.00
64.000000
-0.00
-0.00
-0.00
-0.00
-0.00
-0.00
-0.00
-0.00
-0.00
-0.00
0.00
0.01
0.01
-0.00
-0.03
-0.05
-0.05
0.00
0.13
0.36
0.66
1.01
1.37
1.72
2.06
2.40
2.79
3.24
3.80
4.42
5.06
5.66
6.20
6.68
7.15
7.68
8.31
9.14
10.09
11.04
11.88
12.56
13.14
13.76
14.65
15.96
17.91
20.32
22.90
25.38
27.58
29.57
31.68
34.32
37.81
42.54
48.15
54.10
59.83
64.97
69.58
74.14
79.34
85.71
93.76
103.00
112.62
121.73
129.77
136.75
143.30
150.75
157.77
166.64
177.95
191.79
206.97
220.57
228.25
225.36
208.53
176.87
132.76
80.05
23.07
-34.94
-92.44
-149.16
-205.23
-260.37
-313.74
-363.87
-409.83
-450.91
-486.50
-515.74
-537.23
-549.22
-549.96
-538.37
-514.21
-478.67
-433.88
-382.45
-327.02
-269.84
-212.63
-156.66
-102.95
-52.37
-5.91
35.58
71.42
101.35
125.51
144.41
158.73
169.17
176.35
180.66
182.39
181.80
179.18
174.88
169.31
162.85
155.83
148.45
140.87
133.17
125.42
117.69
110.05
102.55
95.24
88.11
81.16
74.39
67.87
61.66
55.84
50.45
45.46
40.78
36.29
31.89
27.56
23.41
19.58
16.25
13.50
11.23
9.23
7.22
4.99
2.53
0.01
-2.24
-3.90
-4.85
-5.22
-5.42
-5.91
-7.04
-8.84
-11.00
-12.99
-14.39
-14.95
-14.84
-14.48
-14.35
-14.83
-16.18
-18.55
-21.87
-25.66
-28.78
-29.60
-26.49
-18.69
-6.89
6.73
19.29
28.37
32.96
33.66
32.09
29.85
27.82
25.99
23.95
21.41
18.61
16.11
14.41
13.58
13.22
12.80
11.89
10.54
9.24
8.57
8.91
10.18
11.85
13.18
13.58
12.87
11.31
9.44
7.83
6.77
6.35
6.36
6.58
6.77
6.80
6.61
6.28
5.91
5.69
5.81
6.37
7.34
8.50
9.60
10.44
10.99
11.40
11.84
12.44
13.14
13.70
13.83
13.34
12.19
10.48
8.44
6.07
3.36
0.27
-3.16
-6.77
-10.25
-13.32
-15.74
-17.45
-18.52
-19.09
-19.24
-19.05
-18.49
-17.51
-16.04
-14.07
-11.69
-9.11
-6.69
-4.75
-3.54
-3.05
-3.12
-3.47
-3.88
-4.23
-4.56
-4.94
-5.33
-5.64
-5.67
-5.33
-4.67
-3.87
-3.14
-2.64
-2.36
-2.18
-2.04
-1.86
-1.72
-1.74
-1.97
-2.40
-2.92
-3.43
-3.84
-4.20
-4.56
-5.01
-5.57
-6.19
-6.78
-7.25
-7.57
-7.80
-8.05
-8.48
-9.20
-10.28
-11.68
-13.26
-14.65
-15.49
-15.42
-14.22
-11.82
-8.35
-4.14
0.37
4.72
8.53
11.57
13.73
15.08
15.76
15.98
15.89
15.61
15.22
14.68
13.95
12.99
11.87
10.77
9.92
9.49
9.53
9.88
10.32
10.60
10.59
10.25
9.61
8.76
7.75
6.63
5.45
4.23
2.95
1.52
-0.14
-2.10
-4.28
-6.51
-8.61
-10.43
-11.97
-13.29
-14.49
-15.70
-17.01
-18.55
-20.44
-22.67
-24.99
-26.92
-27.80
-27.10
-24.60
-20.53
-15.45
-10.03
-4.79
-0.05
4.11
7.67
10.59
12.81
14.25
14.95
15.06
14.85
14.58
14.41
14.35
14.35
14.32
14.23
14.12
14.10
14.26
14.65
15.18
15.70
16.01
15.97
15.54
14.78
13.78
12.61
11.30
9.84
8.25
6.57
4.88
3.26
1.72
0.25
-1.22
-2.72
-4.21
-5.62
-6.90
-8.05
-9.17
-10.42
-11.98
-13.96
-16.41
-19.23
-22.22
-25.08
-27.44
-28.95
-29.28
-28.26
-25.87
-22.30
-17.90
-13.14
-8.45
-4.18
-0.50
2.59
5.24
7.57
9.64
11.40
12.72
13.49
13.70
13.55
13.34
13.33
13.65
14.18
14.71
15.02
15.04
14.90
14.83
15.00
15.37
15.73
15.80
15.37
14.44
13.16
11.71
10.24
8.79
7.35
5.93
4.62
3.47
2.45
1.41
0.15
-1.48
-3.39
-5.36
-7.14
-8.59
-9.81
-11.06
-12.60
-14.56
-16.85
-19.23
-21.43
-23.26
-24.53
-25.10
-24.78
-23.32
-20.54
-16.48
-11.46
-6.02
-0.84
3.55
6.85
9.03
10.24
10.74
10.75
10.44
9.93
9.31
8.71
8.27
8.11
8.33
8.96
9.91
10.98
11.94
12.54
12.66
12.34
11.75
11.06
10.39
9.71
8.91
7.82
6.39
4.64
2.68
0.69
-1.22
-2.95
-4.50
-5.89
-7.21
-8.59
-10.13
-11.88
-13.84
-15.94
-18.07
-20.10
-21.86
-23.10
-23.52
-22.80
-20.71
-17.31
-12.89
-8.00
-3.22
1.03
4.51
7.25
9.39
11.06
12.35
13.22
13.63
13.55
13.08
12.40
11.79
11.46
11.47
11.70
11.89
11.82
11.42
10.85
10.38
10.21
10.31
10.38
10.03
8.96
7.21
5.07
2.94
1.14
-0.23
-1.32
-2.34
-3.48
-4.80
-6.30
-7.90
-9.55
-11.22
-12.90
-14.61
-16.39
-18.30
-20.45
-22.83
-25.31
-27.60
-29.23
-29.74
-28.76
-26.16
-22.05
-16.85
-11.14
-5.58
-0.73
3.08
5.83
7.75
9.20
10.44
11.59
12.57
13.27
13.65
13.79
13.89
14.11
14.52
15.03
15.47
15.73
15.80
15.78
15.78
15.87
15.98
15.98
15.70
15.01
13.90
12.41
10.72
9.01
7.40
5.93
4.55
3.17
1.67
0.03
-1.76
-3.62
-5.49
-7.31
-9.04
-10.65
-12.09
-13.39
-14.64
-16.03
-17.76
-20.03
-22.85
-26.00
-28.95
-31.01
-31.51
-30.04
-26.61
-21.69
-15.96
-10.14
-4.71
0.08
4.20
7.70
10.58
12.81
14.36
15.28
15.71
15.80
15.67
15.42
15.09
14.80
14.69
14.89
15.42
16.19
16.95
17.44
17.45
16.93
16.01
14.93
13.91
13.08
12.40
11.74
10.92
9.84
8.47
6.87
5.16
3.44
1.78
0.17
-1.43
-3.06
-4.77
-6.52
-8.27
-9.94
-11.46
-12.83
-14.09
-15.36
-16.76
-18.44
-20.41
-22.60
-24.75
-26.53
-27.52
-27.35
-25.77
-22.76
-18.53
-13.50
-8.17
-3.05
1.46
5.16
8.01
10.12
11.64
12.66
13.24
13.41
13.26
12.90
12.51
12.24
12.17
12.31
12.63
13.06
13.51
13.90
14.17
14.26
14.19
14.00
13.70
13.21
12.43
11.24
9.67
7.90
6.23
4.88
3.89
3.06
2.06
0.63
-1.30
-3.51
-5.63
-7.37
-8.59
-9.43
-10.19
-11.16
-12.55
-14.42
-16.69
-19.16
-21.52
-23.41
-24.42
-24.15
-22.37
-19.10
-14.63
-9.50
-4.33
0.35
4.21
7.15
9.25
10.63
11.42
11.67
11.39
10.64
9.57
8.42
7.46
6.90
6.82
7.15
7.74
8.40
9.00
9.47
9.78
9.95
9.94
9.73
9.25
8.49
7.47
6.26
4.96
3.63
2.31
0.93
-0.61
-2.40
-4.38
-6.40
-8.21
-9.61
-10.59
-11.38
-12.35
-13.85
-15.98
-18.55
-21.08
-23.03
-23.97
-23.66
-22.08
-19.34
-15.63
-11.16
-6.24
-1.26
3.36
7.21
10.03
11.75
12.51
12.54
12.14
11.57
11.00
10.52
10.16
9.90
9.69
9.50
9.34
9.24
9.28
9.50
9.88
10.35
10.73
10.86
10.61
9.89
8.71
7.12
5.27
3.33
1.45
-0.28
-1.88
-3.44
-5.08
-6.86
-8.74
-10.58
-12.27
-13.79
-15.24
-16.82
-18.75
-21.09
-23.73
-26.36
-28.54
-29.80
-29.78
-28.36
-25.59
-21.75
-17.19
-12.24
-7.20
-2.33
2.11
5.89
8.81
10.79
11.96
12.52
12.73
12.80
12.80
12.73
12.54
12.26
12.02
11.95
12.13
12.56
13.10
13.61
13.96
14.08
13.98
13.69
13.22
12.56
11.70
10.62
9.35
7.95
6.47
4.92
3.29
1.52
-0.41
-2.49
-4.62
-6.66
-8.48
-9.99
-11.28
-12.52
-14.02
-16.00
-18.52
-21.37
-24.15
-26.38
-27.60
-27.53
-26.05
-23.24
-19.27
-14.48
-9.28
-4.17
0.40
4.14
6.96
9.00
10.49
11.65
12.62
13.50
14.30
15.00
15.54
15.84
15.83
15.52
15.04
14.57
14.31
14.32
14.56
14.87
15.07
15.06
14.82
14.36
13.70
12.79
11.61
10.13
8.39
6.49
4.54
2.69
1.07
-0.30
-1.52
-2.77
-4.23
-5.99
-7.95
-9.88
-11.57
-12.91
-14.03
-15.24
-16.90
-19.19
-21.99
-24.83
-27.05
-27.98
-27.18
-24.59
-20.50
-15.52
-10.33
-5.46
-1.18
2.45
5.53
8.12
10.19
11.68
12.52
12.79
12.68
12.42
12.17
12.03
11.97
11.97
12.05
12.20
12.46
12.79
13.17
13.56
13.89
14.09
14.00
13.50
12.51
11.14
9.60
8.18
7.03
6.12
5.25
4.15
2.69
0.86
-1.15
-3.15
-5.02
-6.71
-8.30
-9.85
-11.43
-13.07
-14.78
-16.55
-18.42
-20.34
-22.12
-23.49
-24.04
-23.43
-21.48
-18.32
-14.32
-9.96
-5.67
-1.66
2.00
5.33
8.27
10.69
12.36
13.15
13.11
12.41
11.35
10.24
9.33
8.79
8.70
9.06
9.77
10.60
11.31
11.70
11.69
11.38
10.94
10.50
10.12
9.71
9.18
8.43
7.44
6.24
4.88
3.43
1.89
0.28
-1.41
-3.17
-4.99
-6.81
-8.59
-10.31
-12.01
-13.81
-15.82
-18.02
-20.21
-22.00
-22.90
-22.53
-20.75
-17.72
-13.84
-9.54
-5.23
-1.15
2.58
5.84
8.55
10.58
11.79
12.19
11.85
11.01
9.90
8.76
7.71
6.85
6.23
5.95
6.09
6.66
7.52
8.43
9.11
9.37
9.18
8.65
7.93
7.07
6.03
4.66
2.86
0.66
-1.77
-4.20
-6.39
-8.23
-9.76
-11.12
-12.48
-14.03
-15.87
-18.06
-20.49
-22.94
-25.05
-26.40
-26.58
-25.32
-22.60
-18.63
-13.82
-8.67
-3.67
0.79
4.50
7.39
9.51
10.99
11.88
12.23
12.09
11.58
10.91
10.33
10.03
10.06
10.31
10.60
10.81
10.93
11.07
11.36
11.79
12.26
12.54
12.44
11.86
10.80
9.32
7.55
5.59
3.53
1.45
-0.62
-2.63
-4.58
-6.43
-8.15
-9.76
-11.33
-12.99
-14.86
-17.03
-19.51
-22.20
-24.92
-27.40
-29.28
-30.18
-29.75
-27.77
-24.25
-19.50
-14.02
-8.42
-3.22
1.29
5.00
7.97
10.27
11.99
13.16
13.84
14.11
14.06
13.84
13.60
13.46
13.56
13.95
14.64
15.50
16.38
17.10
17.54
17.68
17.52
17.09
16.37
15.30
13.85
12.06
10.02
7.83
5.60
3.36
1.13
-1.11
-3.32
-5.45
-7.40
-9.11
-10.56
-11.78
-12.91
-14.12
-15.65
-17.63
-20.12
-22.96
-25.80
-28.12
-29.34
-29.01
-26.88
-23.03
-17.86
-11.98
-6.06
-0.68
3.83
7.39
10.07
12.04
13.44
14.40
14.98
15.25
15.30
15.26
15.28
15.50
15.95
16.57
17.20
17.66
17.82
17.67
17.32
16.93
16.62
16.44
16.32
16.09
15.59
14.69
13.35
11.60
9.61
7.57
5.63
3.92
2.45
1.13
-0.17
-1.64
-3.35
-5.32
-7.43
-9.55
-11.52
-13.26
-14.79
-16.25
-17.87
-19.86
-22.33
-25.14
-27.90
-29.98
-30.70
-29.59
-26.53
-21.85
-16.19
-10.27
-4.65
0.34
4.65
8.33
11.37
13.70
15.19
15.78
15.56
14.77
13.80
12.99
12.57
12.57
12.87
13.35
13.90
14.50
15.17
15.88
16.48
16.74
16.44
15.50
14.07
12.44
10.94
9.74
8.77
7.83
6.65
5.11
3.27
1.31
-0.54
-2.16
-3.55
-4.81
-6.05
-7.37
-8.83
-10.53
-12.51
-14.80
-17.28
-19.64
-21.40
-22.07
-21.32
-19.05
-15.49
-11.07
-6.27
-1.57
2.71
6.37
9.28
11.39
12.66
13.14
12.96
12.27
11.31
10.25
9.28
8.57
8.19
8.18
8.47
8.89
9.31
9.59
9.70
9.66
9.53
9.30
8.90
8.25
7.27
5.91
4.19
2.18
0.01
-2.22
-4.36
-6.30
-8.01
-9.51
-10.96
-12.53
-14.41
-16.73
-19.46
-22.45
-25.41
-27.91
-29.50
-29.78
-28.46
-25.47
-21.04
-15.61
-9.80
-4.18
0.82
4.96
8.23
10.71
12.55
13.79
14.48
14.67
14.42
13.92
13.34
12.84
12.50
12.29
12.16
12.08
12.07
12.18
12.43
12.74
12.93
12.80
12.24
11.23
9.89
8.34
6.65
4.86
2.92
0.82
-1.38
-3.61
-5.78
-7.85
-9.83
-11.74
-13.59
-15.44
-17.33
-19.37
-21.65
-24.13
-26.56
-28.47
-29.34
-28.73
-26.45
-22.67
-17.80
-12.38
-6.94
-1.86
2.62
6.36
9.31
11.48
12.93
13.78
14.14
14.17
14.01
13.78
13.55
13.39
13.32
13.33
13.42
13.59
13.85
14.21
14.58
14.85
14.90
14.62
13.97
12.99
11.71
10.19
8.46
6.56
4.54
2.48
0.44
-1.57
-3.56
-5.57
-7.58
-9.50
-11.27
-12.89
-14.48
-16.27
-18.46
-21.08
-23.93
-26.58
-28.49
-29.14
-28.21
-25.66
-21.70
-16.76
-11.34
-5.96
-0.98
3.40
7.13
10.23
12.72
14.55
15.67
16.04
15.73
14.98
14.04
13.22
12.70
12.58
12.82
13.28
13.81
14.29
14.64
14.87
14.98
14.97
14.79
14.37
13.69
12.74
11.59
10.30
8.90
7.42
5.89
4.34
2.80
1.31
-0.13
-1.53
-2.96
-4.47
-6.06
-7.74
-9.50
-11.31
-13.19
-15.13
-17.14
-19.25
-21.42
-23.58
-25.58
-27.16
-28.00
-27.75
-26.12
-22.99
-18.51
-13.06
-7.22
-1.64
3.19
7.04
9.89
11.93
13.35
14.30
14.83
14.91
14.60
13.99
13.30
12.70
12.37
12.29
12.39
12.51
12.56
12.54
12.54
12.61
12.72
12.70
12.31
11.39
9.98
8.26
6.54
5.00
3.66
2.38
0.94
-0.80
-2.83
-4.96
-6.97
-8.67
-10.00
-11.08
-12.15
-13.47
-15.22
-17.42
-19.88
-22.27
-24.15
-25.11
-24.81
-23.06
-19.86
-15.44
-10.22
-4.71
0.57
5.20
8.93
11.66
13.41
14.25
14.31
13.78
12.89
11.92
11.10
10.59
10.42
10.47
10.56
10.58
10.49
10.36
10.31
10.45
10.78
11.17
11.43
11.38
10.95
10.16
9.09
7.80
6.30
4.53
2.47
0.16
-2.22
-4.46
-6.38
-7.91
-9.15
-10.32
-11.66
-13.33
-15.38
-17.68
-19.98
-21.93
-23.12
-23.17
-21.76
-18.79
-14.41
-9.08
-3.44
1.86
6.31
9.64
11.82
12.95
13.18
12.70
11.69
10.43
9.22
8.36
8.03
8.27
8.93
9.83
10.77
11.68
12.53
13.36
14.16
14.83
15.18
15.03
14.23
12.78
10.84
8.65
6.49
4.53
2.79
1.16
-0.52
-2.42
-4.56
-6.81
-8.99
-10.87
-12.42
-13.79
-15.33
-17.41
-20.20
-23.56
-26.98
-29.74
-31.14
-30.75
-28.53
-24.80
-20.06
-14.89
-9.75
-4.95
-0.68
3.00
6.03
8.40
10.14
11.32
12.01
12.30
12.24
11.85
11.15
10.18
9.04
7.88
6.85
6.05
5.43
4.83
4.05
2.93
1.47
-0.20
-1.87
-3.35
-4.55
-5.46
-6.14
-6.58
-6.72
-6.53
-6.00
-5.34
-4.82
-4.72
-5.21
-6.27
-7.76
-9.58
-11.70
-14.16
-16.91
-19.68
-21.97
-23.15
-22.66
-20.32
-16.32
-11.21
-5.69
-0.37
4.32
8.22
11.31
13.64
15.27
16.22
16.54
16.31
15.64
14.72
13.70
12.74
11.92
11.34
11.01
10.94
11.08
11.36
11.69
11.98
12.17
12.18
11.95
11.43
10.58
9.42
8.00
6.46
4.91
3.44
2.07
0.78
-0.47
-1.73
-3.03
-4.41
-5.94
-7.72
-9.82
-12.27
-14.92
-17.43
-19.32
-20.08
-19.34
-17.04
-13.39
-8.87
-3.98
0.82
5.24
9.12
12.33
14.77
16.29
16.87
16.56
15.54
14.09
12.46
10.83
9.32
8.03
7.03
6.35
5.94
5.69
5.47
5.14
4.69
4.15
3.61
3.07
2.47
1.67
0.58
-0.84
-2.55
-4.45
-6.43
-8.41
-10.34
-12.22
-14.06
-15.90
-17.80
-19.81
-21.86
-23.79
-25.29
-25.98
-25.51
-23.69
-20.50
-16.16
-11.08
-5.73
-0.59
3.97
7.67
10.34
11.92
12.46
12.13
11.22
10.08
9.02
8.28
7.91
7.80
7.75
7.57
7.16
6.56
5.96
5.52
5.38
5.50
5.69
5.69
5.19
4.04
2.26
0.01
-2.42
-4.80
-6.94
-8.84
-10.60
-12.37
-14.33
-16.53
-18.99
-21.54
-23.87
-25.59
-26.22
-25.37
-22.85
-18.75
-13.48
-7.62
-1.86
3.25
7.34
10.33
12.35
13.62
14.35
14.64
14.53
14.00
13.09
11.97
10.91
10.16
9.88
10.03
10.40
10.70
10.74
10.47
9.98
9.38
8.75
8.04
7.14
5.95
4.40
2.53
0.44
-1.72
-3.85
-5.87
-7.79
-9.65
-11.58
-13.67
-16.01
-18.59
-21.30
-23.92
-26.13
-27.51
-27.69
-26.35
-23.36
-18.91
-13.42
-7.54
-1.89
3.04
7.04
10.14
12.50
14.28
15.53
16.24
16.38
16.00
15.27
14.43
13.71
13.23
13.03
13.05
13.24
13.57
14.04
14.62
15.22
15.63
15.60
14.93
13.57
11.63
9.41
7.22
5.29
3.71
2.33
0.92
-0.73
-2.71
-4.96
-7.29
-9.57
-11.72
-13.77
-15.83
-18.04
-20.45
-23.03
-25.56
-27.70
-28.97
-28.88
-27.11
-23.58
-18.62
-12.82
-6.88
-1.38
3.33
7.20
10.32
12.80
14.71
16.04
16.80
17.08
17.02
16.79
16.51
16.23
15.97
15.75
15.65
15.72
15.99
16.38
16.77
17.02
17.02
16.75
16.20
15.42
14.46
13.39
12.24
11.04
9.73
8.25
6.58
4.73
2.81
0.96
-0.77
-2.40
-4.06
-5.83
-7.73
-9.68
-11.53
-13.19
-14.64
-15.99
-17.38
-18.99
-20.89
-23.10
-25.50
-27.79
-29.52
-30.15
-29.26
-26.67
-22.54
-17.34
-11.68
-6.10
-0.97
3.47
7.16
10.04
12.13
13.48
14.23
14.56
14.67
14.67
14.63
14.57
14.51
14.46
14.42
14.36
14.26
14.12
14.03
14.08
14.33
14.69
14.90
14.69
13.85
12.43
10.69
8.99
7.60
6.60
5.80
4.91
3.66
1.98
-0.04
-2.19
-4.25
-6.11
-7.78
-9.35
-10.92
-12.57
-14.30
-16.09
-17.93
-19.81
-21.66
-23.34
-24.57
-24.98
-24.18
-21.93
-18.25
-13.46
-8.11
-2.81
1.93
5.85
8.89
11.12
12.61
13.38
13.50
13.02
12.12
11.03
9.99
9.13
8.56
8.27
8.24
8.44
8.82
9.28
9.69
9.97
10.06
9.92
9.55
8.91
7.99
6.84
5.52
4.16
2.83
1.52
0.09
-1.57
-3.55
-5.80
-8.19
-10.51
-12.61
-14.44
-16.08
-17.75
-19.64
-21.85
-24.23
-26.37
-27.69
-27.63
-25.86
-22.44
-17.77
-12.44
-7.02
-1.93
2.59
6.42
9.48
11.70
13.05
13.59
13.52
13.10
12.61
12.20
11.91
11.73
11.61
11.56
11.62
11.84
12.22
12.73
13.25
13.66
13.85
13.74
13.29
12.50
11.44
10.16
8.75
7.28
5.77
4.19
2.47
0.57
-1.44
-3.43
-5.23
-6.73
-7.98
-9.15
-10.49
-12.19
-14.39
-17.07
-20.09
-23.20
-26.03
-28.15
-29.08
-28.43
-26.02
-22.03
-16.92
-11.37
-6.03
-1.36
2.45
5.45
7.75
9.42
10.39
10.54
9.81
8.31
6.33
4.25
2.39
0.83
-0.58
-2.06
-3.83
-5.88
-8.04
-10.04
-11.74
-13.16
-14.44
-15.70
-16.87
-17.66
-17.68
-16.66
-14.62
-11.90
-9.04
-6.59
-4.91
-4.14
-4.29
-5.42
-7.72
-11.50
-17.07
-24.54
-33.63
-43.60
-53.37
-61.70
-67.45
-69.78
-68.32
-63.21
-55.03
-44.78
-33.69
-22.94
-13.41
-5.44
1.13
6.81
12.13
17.33
22.27
26.47
29.42
30.76
30.48
28.91
26.55
24.00
21.77
20.19
19.43
19.44
19.99
20.71
21.25
21.27
20.65
19.45
17.83
16.02
14.18
12.28
10.16
7.62
4.51
0.87
-3.05
-6.84
-10.05
-12.40
-13.80
-14.44
-14.66
-14.82
-15.12
-15.57
-15.93
-15.79
-14.71
-12.32
-8.50
-3.56
1.78
6.47
9.47
10.13
8.59
5.73
3.00
1.89
3.41
7.83
14.64
22.71
30.63
37.06
40.98
41.94
40.07
36.03
30.73
25.08
19.75
15.00
10.80
6.89
2.93
-1.40
-6.41
-12.26
-18.90
-25.95
-32.75
-38.50
-42.55
-44.61
-44.86
-43.84
-42.28
-40.82
-39.91
-39.77
-40.42
-41.71
-43.28
-44.63
-45.14
-44.22
-41.58
-37.36
-32.14
-26.76
-22.03
-18.47
-16.23
-15.12
-14.80
-14.86
-14.83
-14.13
-12.00
-7.57
-0.14
10.56
24.13
39.65
56.08
72.73
89.48
106.48
123.63
140.11
154.44
165.07
171.14
172.93
171.71
169.03
165.95
162.61
158.55
153.24
146.75
139.84
133.65
129.10
126.45
125.17
124.21
122.47
119.37
115.52
112.90
114.66
124.04
142.85
169.96
200.76
227.94
243.54
241.38
218.70
176.46
118.62
50.92
-19.84
-86.51
-142.18
-181.28
-201.01
-202.36
-189.88
-170.20
-149.65
-132.47
-120.25
-112.73
-109.15
-109.21
-113.03
-120.45
-130.52
-141.43
-151.20
-158.50
-163.03
-165.38
-166.45
-166.76
-166.23
-164.31
-160.48
-154.69
-147.49
-139.79
-132.44
-125.89
-119.92
-113.80
-106.65
-97.76
-86.91
-74.47
-61.25
-48.27
-36.48
-26.49
-18.49
-12.26
-7.34
-3.20
0.53
3.98
7.00
9.31
10.66
10.95
10.35
9.15
7.71
6.35
5.28
4.55
4.11
3.74
3.08
1.74
-0.60
-3.91
-7.82
-11.72
-15.09
-17.88
-20.60
-24.16
-29.39
-36.62
-45.47
-54.96
-63.85
-70.97
-75.34
-76.16
-72.80
-64.90
-52.65
-36.99
-19.61
-2.57
12.27
23.77
31.76
36.80
39.89
41.97
43.66
45.28
46.83
48.24
49.40
50.25
50.72
50.78
50.38
49.54
48.31
46.78
45.14
43.60
42.36
41.59
41.32
41.41
41.59
41.52
40.94
39.83
38.37
37.02
36.21
36.18
36.74
37.21
36.72
34.53
30.41
24.86
18.96
14.09
11.49
11.98
15.83
22.59
31.17
39.84
46.59
49.56
47.62
40.71
29.85
16.69
2.98
-9.91
-21.17
-30.36
-37.24
-41.65
-43.64
-43.57
-42.14
-40.20
-38.50
-37.49
-37.21
-37.48
-38.00
-38.55
-39.00
-39.39
-39.92
-40.83
-42.34
-44.34
-46.27
-47.14
-45.78
-41.29
-33.52
-23.23
-11.95
-1.42
6.95
12.57
15.65
16.94
17.19
16.84
16.00
14.73
13.33
12.44
12.70
14.36
17.07
20.03
22.50
24.22
25.38
26.29
26.86
26.29
23.41
17.35
8.26
-2.60
-13.34
-22.30
-28.79
-33.19
-36.64
-40.44
-45.57
-52.36
-60.56
-69.41
-77.72
-84.03
-86.72
-84.61
-77.37
-65.60
-50.49
-33.31
-14.75
5.16
26.88
51.31
78.90
109.17
140.63
170.80
196.19
213.02
217.93
209.32
189.23
162.54
135.48
113.62
100.11
94.47
93.63
93.21
89.53
82.45
73.97
66.93
63.58
64.89
69.47
74.97
78.19
76.62
71.39
65.55
62.09
62.15
64.31
64.57
59.74
48.60
22.92
-17.00
-63.66
-106.95
-139.81
-155.96
-157.53
-146.00
-123.03
-91.97
-58.59
-30.10
-13.06
-10.37
-19.79
-36.18
-53.36
-67.83
-79.95
-91.39
-104.55
-120.92
-139.49
-155.87
-163.52
-154.99
-125.96
-78.03
-18.48
41.16
89.22
118.53
128.82
125.25
115.15
103.62
91.82
78.62
62.97
45.74
29.65
17.49
9.84
4.67
-1.55
-11.45
-24.61
-37.47
-45.14
-43.69
-32.15
-13.10
8.46
26.94
38.24
41.04
36.89
29.31
22.17
18.22
18.29
21.45
25.94
30.34
34.36
38.99
45.74
55.69
68.44
81.84
92.46
96.69
92.11
78.40
57.65
33.66
10.79
-7.35
-18.87
-23.87
-24.03
-21.61
-18.59
-16.13
-14.89
-15.56
-19.17
-26.88
-39.05
-54.47
-70.20
-82.54
-88.40
-86.59
-78.11
-65.56
-52.03
-40.43
-33.31
-32.78
-40.11
-54.57
-72.41
-86.93
-90.51
-77.89
-49.21
-10.80
26.78
52.78
60.47
49.62
26.18
-0.57
-21.80
-32.02
-30.28
-19.19
-2.89
14.74
30.82
43.21
49.84
48.59
38.04
18.57
-6.88
-33.19
-54.61
-66.85
-68.50
-61.28
-49.13
-36.64
-27.71
-24.62
-27.68
-35.41
-45.23
-54.55
-61.88
-67.66
-73.99
-83.39
-97.15
-113.97
-129.78
-138.97
-136.65
-121.01
-94.65
-63.94
-36.82
-19.71
-14.95
-19.95
-28.31
-32.66
-27.73
-12.38
10.39
35.24
57.22
74.00
86.51
98.01
112.11
130.93
154.13
179.08
201.80
218.17
224.86
219.64
201.58
171.24
130.97
85.01
38.86
-2.08
-34.09
-56.21
-70.35
-80.26
-89.88
-101.68
-115.50
-128.40
-135.42
-131.28
-112.32
-78.01
-31.58
20.57
70.46
110.51
135.47
143.48
136.19
117.77
93.44
67.89
44.13
23.28
5.19
-10.67
-24.36
-35.35
-43.07
-47.71
-50.54
-53.50
-58.17
-64.88
-72.72
-80.11
-85.79
-89.42
-91.31
-91.60
-89.42
-82.81
-69.45
-47.98
-18.87
15.26
50.22
81.30
104.34
116.57
117.10
106.94
88.82
66.60
44.49
26.33
14.89
11.22
14.36
21.40
27.95
29.24
21.72
4.70
-18.84
-42.88
-60.63
-67.41
-62.92
-51.45
-39.92
-34.74
-39.21
-52.52
-70.80
-89.33
-104.57
-115.15
-121.60
-125.21
-126.88
-126.73
-124.14
-118.44
-109.42
-97.54
-83.99
-70.23
-57.62
-47.00
-38.67
-32.49
-28.23
-25.85
-25.33
-26.36
-28.00
-28.80
-27.43
-23.31
-16.76
-8.54
0.93
12.01
25.42
41.29
58.28
73.69
84.43
88.35
85.08
75.88
63.00
48.83
35.57
25.12
18.98
17.74
20.27
23.49
23.10
15.45
-0.51
-22.48
-45.65
-64.86
-76.81
-81.02
-79.25
-73.75
-65.89
-55.76
-42.75
-26.84
-9.35
7.19
20.33
29.08
34.44
38.86
44.57
51.94
59.01
62.20
58.30
46.37
28.72
10.23
-3.51
-8.56
-4.17
7.19
21.13
33.49
42.13
47.52
52.00
58.20
67.42
78.81
89.62
96.53
97.11
90.83
78.99
63.85
47.37
30.48
13.20
-4.71
-22.98
-40.41
-55.15
-65.46
-70.50
-70.72
-67.62
-63.17
-58.97
-55.81
-53.55
-51.54
-49.12
-45.95
-41.94
-36.96
-30.49
-21.62
-9.66
5.08
20.74
34.26
42.53
43.79
38.41
28.79
18.28
9.77
4.75
3.09
3.55
4.56
4.97
4.36
3.06
1.81
1.38
2.10
3.50
4.43
3.40
-0.83
-8.57
-18.97
-30.20
-40.01
-46.37
-48.01
-44.69
-37.11
-26.47
-13.96
-0.28
14.29
29.53
44.66
58.10
67.96
72.89
72.89
69.37
64.34
59.35
54.70
49.64
43.36
35.90
28.36
22.29
18.57
16.63
14.74
11.05
4.67
-3.82
-12.73
-20.17
-24.93
-26.84
-26.54
-24.94
-22.77
-20.26
-17.16
-12.86
-6.68
1.84
12.48
24.24
35.37
43.87
48.05
47.07
41.05
30.89
17.86
3.23
-11.85
-26.39
-39.47
-50.10
-57.29
-60.17
-58.33
-52.16
-43.00
-32.96
-24.26
-18.53
-16.21
-16.59
-18.29
-20.07
-21.31
-21.91
-21.92
-21.22
-19.68
-17.63
-16.23
-17.20
-21.83
-30.03
-39.95
-48.70
-53.75
-54.24
-51.24
-46.81
-42.55
-38.63
-33.92
-27.20
-18.53
-9.86
-4.27
-4.43
-11.01
-22.17
-34.31
-43.57
-47.17
-44.09
-34.70
-20.16
-1.91
18.47
39.05
57.64
72.14
81.15
84.46
83.05
78.63
73.12
68.20
65.24
65.25
68.73
75.40
84.11
93.05
100.40
105.00
106.73
106.35
105.08
103.92
103.36
103.28
103.13
102.17
99.61
94.73
87.07
76.55
63.62
49.18
34.35
20.08
6.94
-4.91
-15.51
-24.72
-32.08
-36.84
-38.52
-37.30
-34.24
-31.02
-29.28
-29.94
-32.97
-37.52
-42.50
-47.04
-50.66
-53.11
-54.08
-53.10
-49.80
-44.26
-37.40
-30.84
-26.46
-25.68
-28.90
-35.30
-43.08
-50.10
-54.68
-56.22
-55.45
-54.04
-53.83
-56.03
-60.86
-67.71
-75.73
-84.25
-92.89
-101.02
-107.50
-110.50
-108.15
-99.47
-85.03
-67.03
-48.43
-31.94
-19.06
-9.89
-3.62
0.72
3.51
4.58
3.62
1.02
-1.85
-3.03
-1.14
3.51
8.66
11.05
8.19
0.02
-10.75
-19.86
-23.54
-20.22
-10.95
1.57
14.59
26.41
36.56
45.19
52.34
57.60
60.35
60.21
57.35
52.46
46.50
40.42
34.86
30.02
25.74
21.64
17.51
13.66
10.99
10.76
13.97
20.80
30.23
40.18
48.03
51.26
48.09
37.91
21.40
0.51
-21.88
-42.50
-58.33
-67.36
-68.94
-63.76
-53.53
-40.32
-26.19
-12.85
-1.61
6.67
11.69
13.92
14.80
16.85
23.36
37.24
59.79
89.84
123.72
156.44
183.15
200.23
205.68
198.78
179.27
147.26
104.02
52.79
-0.78
-50.11
-89.75
-116.79
-130.49
-131.72
-121.64
-101.21
-72.12
-37.08
-0.94
29.86
49.68
56.97
53.56
43.51
31.04
18.20
6.66
-2.63
-9.09
-11.69
-7.82
3.38
20.11
38.52
53.07
62.01
66.70
70.54
77.79
93.05
116.85
145.13
171.55
189.03
197.11
200.34
205.71
203.11
186.68
156.11
116.24
85.15
59.85
36.07
11.89
-17.22
-50.28
-81.92
-106.14
-118.11
-114.78
-96.84
-67.70
-35.55
-10.14
2.43
2.46
-4.31
-13.33
-20.70
-24.82
-23.42
-15.65
-2.98
12.46
26.44
33.62
29.47
12.64
-16.07
-52.61
-92.46
-132.43
-170.70
-206.00
-236.81
-261.31
-278.00
-287.60
-292.66
-296.73
-301.87
-306.28
-304.17
-287.91
-251.91
-195.38
-123.04
-42.32
40.02
120.26
197.18
269.32
332.73
380.47
405.00
401.49
369.94
314.97
243.53
162.54
78.11
-3.54
-74.74
-126.63
-152.03
-149.53
-126.18
-96.45
-77.21
-80.84
-109.87
-155.94
-203.28
-235.32
-240.95
-217.67
-171.27
-112.47
-52.90
-2.03
34.45
55.17
62.72
62.51
61.14
63.78
72.06
83.13
90.48
86.35
64.47
22.27
-38.29
-111.02
-186.76
-255.07
-306.34
-333.67
-334.28
-309.62
-264.31
-204.31
-135.63
-64.07
4.21
62.48
104.30
125.42
125.59
108.75
81.56
51.03
23.04
1.95
-9.18
-8.40
4.51
28.07
58.87
92.66
125.88
157.23
186.98
215.33
240.66
258.97
266.24
259.91
239.90
208.09
167.97
123.41
78.53
37.81
5.40
-13.84
-17.60
-5.36
17.47
40.50
52.24
44.57
18.66
-24.04
-78.39
-136.60
-191.08
-238.01
-274.16
-299.69
-316.28
-324.58
-323.53
-309.63
-279.91
-234.16
-175.84
-110.36
-43.71
19.14
74.53
119.34
151.81
171.42
179.18
177.71
170.91
162.81
156.82
154.99
157.22
161.96
166.61
168.82
167.74
164.93
163.30
165.14
169.95
173.46
169.25
151.61
118.64
74.03
26.83
-11.02
-28.07
-17.05
22.50
83.75
154.35
220.02
268.80
294.27
296.32
279.52
249.93
212.24
168.53
119.06
63.98
4.79
-55.51
-113.26
-165.04
-207.86
-238.81
-254.77
-253.00
-232.80
-197.10
-153.26
-112.11
-85.30
-81.91
-105.43
-152.35
-212.82
-273.29
-320.04
-342.67
-336.35
-302.44
-247.37
-180.35
-110.62
-45.27
11.75
59.20
97.34
126.86
148.28
162.04
168.96
170.16
166.86
159.87
149.16
134.05
113.93
88.95
60.57
31.54
5.54
-13.41
-21.96
-18.34
-3.35
19.17
42.87
60.38
65.22
53.25
23.38
-22.52
-79.90
-142.01
-200.45
-246.30
-271.87
-272.71
-248.63
-203.42
-143.69
-77.11
-10.93
48.40
95.72
127.87
144.57
148.82
146.50
144.12
146.08
152.59
159.38
159.44
145.61
113.55
64.23
4.75
-53.12
-96.59
-116.61
-111.85
-89.55
-62.78
-45.18
-45.12
-62.68
-90.64
-118.49
-137.28
-142.40
-133.80
-114.35
-88.52
-60.31
-32.87
-8.49
11.16
25.30
34.51
40.62
46.03
51.35
55.82
57.20
52.40
38.04
11.56
-26.56
-71.59
-114.83
-147.82
-164.54
-163.86
-149.85
-129.98
-111.67
-98.41
-88.81
-69.08
-31.25
22.52
80.75
130.92
165.72
182.83
184.67
173.14
148.83
111.50
63.33
9.01
-46.32
-96.82
-140.20
-177.39
-210.20
-238.15
-258.43
-265.98
-256.07
-226.64
-179.52
-119.75
-52.90
16.41
84.93
148.31
200.71
235.63
248.50
239.21
212.68
177.66
143.30
115.70
95.82
80.71
66.16
49.80
32.33
16.66
6.11
2.58
5.55
12.27
19.07
22.65
21.26
14.62
3.34
-11.72
-29.80
-50.14
-71.44
-91.53
-107.18
-114.57
-110.07
-91.26
-57.71
-11.59
42.21
96.59
143.44
175.31
187.38
178.64
152.17
114.02
71.34
30.38
-4.71
-31.89
-50.49
-60.26
-61.06
-53.12
-37.78
-17.80
2.96
20.60
32.52
38.23
39.35
38.66
38.67
40.58
43.97
47.44
49.66
50.20
49.68
49.18
49.35
49.84
49.42
46.63
40.64
31.71
21.02
10.11
0.28
-7.71
-13.61
-17.35
-19.05
-18.95
-17.58
-15.77
-14.38
-14.08
-15.10
-17.19
-19.83
-22.46
-24.61
-25.86
-25.88
-24.37
-21.23
-16.71
-11.50
-6.56
-2.83
-0.88
-0.80
-2.25
-4.65
-7.44
-10.17
-12.59
-14.59
-16.24
-17.85
-19.88
-22.84
-27.00
-32.16
-37.63
-42.32
-45.18
-45.46
-42.98
-38.03
-31.28
-23.49
-15.39
-7.62
-0.71
5.00
9.41
12.65
15.07
17.07
18.98
20.97
23.04
25.09
27.07
28.94
30.73
32.44
33.95
35.09
35.64
35.47
34.53
32.90
30.69
28.00
24.88
21.30
17.30
12.91
8.21
3.29
-1.82
-7.14
-12.61
-17.98
-22.75
-26.23
-27.76
-27.01
-24.06
-19.42
-13.83
-8.01
-2.48
2.48
6.81
10.52
13.68
16.27
18.28
19.65
20.31
20.26
19.58
18.50
17.33
16.37
15.79
15.52
15.41
15.23
14.87
14.28
13.49
12.49
11.19
9.46
7.25
4.63
1.76
-1.12
-3.84
-6.35
-8.69
-10.93
-13.16
-15.53
-18.21
-21.42
-25.28
-29.66
-34.11
-37.93
-40.30
-40.59
-38.55
-34.33
-28.46
-21.63
-14.48
-7.49
-0.96
4.95
10.15
14.53
17.97
20.36
21.68
22.06
21.71
21.00
20.30
19.95
20.23
21.28
23.07
25.49
28.30
31.21
33.89
36.02
37.31
37.52
36.45
34.03
30.26
25.29
19.39
12.98
6.52
0.48
-4.81
-9.18
-12.71
-15.67
-18.40
-21.19
-24.25
-27.61
-31.22
-34.96
-38.57
-41.69
-43.77
-44.24
-42.64
-38.84
-33.18
-26.36
-19.27
-12.63
-6.86
-2.00
2.10
5.57
8.44
10.63
12.11
13.01
13.60
14.24
15.15
16.40
17.88
19.40
20.80
21.99
22.96
23.69
24.15
24.32
24.18
23.79
23.20
22.44
21.48
20.23
18.68
16.92
15.08
13.31
11.69
10.19
8.70
7.11
5.37
3.49
1.52
-0.51
-2.60
-4.71
-6.76
-8.67
-10.35
-11.88
-13.43
-15.24
-17.44
-20.00
-22.63
-25.03
-26.96
-28.45
-29.75
-31.24
-33.16
-35.46
-37.73
-39.31
-39.52
-37.90
-34.37
-29.19
-22.89
-16.06
-9.23
-2.83
2.87
7.61
11.25
13.76
15.21
15.87
16.04
16.01
15.99
16.01
16.03
16.01
15.90
15.70
15.44
15.14
14.79
14.39
13.91
13.35
12.71
11.95
10.97
9.68
8.03
6.03
3.85
1.71
-0.13
-1.58
-2.68
-3.67
-4.83
-6.34
-8.23
-10.35
-12.51
-14.58
-16.53
-18.49
-20.63
-23.00
-25.48
-27.67
-29.00
-28.91
-27.02
-23.27
-18.00
-11.80
-5.43
0.43
5.32
9.04
11.56
13.00
13.52
13.31
12.57
11.55
10.50
9.65
9.14
9.00
9.18
9.54
9.95
10.31
10.53
10.53
10.23
9.61
8.66
7.48
6.17
4.82
3.48
2.12
0.66
-0.93
-2.64
-4.38
-6.04
-7.57
-9.01
-10.49
-12.19
-14.25
-16.72
-19.51
-22.44
-25.25
-27.54
-28.87
-28.81
-27.07
-23.62
-18.74
-12.97
-6.98
-1.33
3.62
7.68
10.81
12.99
14.21
14.52
14.08
13.16
12.09
11.16
10.55
10.29
10.31
10.47
10.62
10.67
10.57
10.35
10.06
9.72
9.30
8.73
7.90
6.73
5.22
3.43
1.45
-0.64
-2.74
-4.80
-6.71
-8.41
-9.93
-11.38
-13.00
-15.00
-17.47
-20.29
-23.17
-25.67
-27.37
-27.87
-26.91
-24.37
-20.30
-14.98
-8.91
-2.72
2.97
7.71
11.32
13.85
15.45
16.27
16.39
15.87
14.86
13.65
12.58
11.95
11.89
12.29
12.91
13.49
13.83
13.89
13.73
13.37
12.84
12.09
11.10
9.93
8.67
7.46
6.32
5.23
4.04
2.61
0.85
-1.24
-3.55
-5.90
-8.10
-10.00
-11.57
-12.90
-14.19
-15.69
-17.63
-20.05
-22.82
-25.60
-27.93
-29.31
-29.27
-27.52
-23.95
-18.78
-12.47
-5.75
0.58
5.88
9.76
12.22
13.52
14.03
14.11
13.95
13.63
13.15
12.54
11.92
11.49
11.45
11.88
12.66
13.50
14.09
14.23
13.92
13.30
12.57
11.82
11.01
9.99
8.64
6.98
5.15
3.36
1.76
0.37
-0.90
-2.21
-3.72
-5.50
-7.50
-9.62
-11.71
-13.61
-15.26
-16.69
-18.06
-19.55
-21.35
-23.40
-25.41
-26.85
-27.08
-25.59
-22.20
-17.17
-11.19
-5.10
0.39
4.87
8.32
10.89
12.77
13.94
14.31
13.76
12.42
10.61
8.83
7.51
6.89
6.97
7.57
8.45
9.39
10.20
10.73
10.82
10.40
9.49
8.23
6.78
5.28
3.75
2.16
0.45
-1.34
-3.08
-4.61
-5.83
-6.79
-7.65
-8.66
-10.00
-11.71
-13.73
-15.95
-18.30
-20.69
-22.94
-24.67
-25.34
-24.44
-21.69
-17.27
-11.72
-5.82
-0.28
4.44
8.19
11.00
12.94
14.03
14.27
13.69
12.46
10.88
9.34
8.20
7.71
7.91
8.64
9.61
10.46
10.96
11.01
10.67
10.13
9.55
9.00
8.42
7.69
6.68
5.35
3.77
2.06
0.36
-1.29
-2.91
-4.60
-6.48
-8.63
-11.10
-13.92
-17.05
-20.42
-23.84
-26.94
-29.27
-30.34
-29.78
-27.47
-23.53
-18.33
-12.41
-6.33
-0.65
4.22
8.06
10.85
12.74
13.90
14.51
14.71
14.56
14.21
13.79
13.53
13.57
14.00
14.75
15.69
16.65
17.52
18.22
18.73
19.02
19.06
18.82
18.28
17.45
16.39
15.16
13.89
12.68
11.65
10.84
10.20
9.56
8.74
7.59
6.12
4.51
3.02
1.84
0.90
-0.18
-1.85
-4.42
-7.68
-10.93
-13.22
-13.85
-12.64
-9.97
-6.47
-2.71
0.96
4.26
6.77
7.89
6.99
3.84
-1.23
-7.35
-13.51
-18.99
-23.46
-26.91
-29.28
-30.32
-29.61
-26.91
-22.37
-16.61
-10.47
-4.79
-0.14
3.23
5.31
6.32
6.55
6.36
6.07
5.84
5.67
5.30
4.43
2.85
0.58
-2.14
-4.88
-7.26
-9.04
-10.16
-10.74
-11.01
-11.23
-11.64
-12.44
-13.63
-15.01
-16.10
-16.26
-14.92
-11.79
-7.06
-1.38
4.33
9.14
12.43
14.01
14.16
13.41
12.38
11.50
10.98
10.81
10.84
10.97
11.13
11.35
11.65
11.96
12.16
12.06
11.59
10.81
9.92
9.19
8.78
8.63
8.52
8.14
7.27
5.91
4.27
2.67
1.36
0.40
-0.34
-1.11
-2.14
-3.53
-5.22
-7.02
-8.68
-10.01
-10.95
-11.63
-12.30
-13.31
-14.95
-17.33
-20.24
-23.24
-25.67
-26.91
-26.52
-24.32
-20.46
-15.37
-9.61
-3.80
1.51
5.99
9.49
12.01
13.66
14.58
14.92
14.78
14.29
13.59
12.86
12.27
12.00
12.14
12.65
13.38
14.14
14.71
15.00
14.97
14.70
14.23
13.56
12.60
11.27
9.57
7.64
5.68
3.86
2.21
0.65
-0.93
-2.58
-4.20
-5.67
-6.90
-7.92
-8.88
-9.97
-11.35
-13.07
-15.13
-17.50
-20.03
-22.45
-24.30
-25.01
-24.10
-21.35
-16.90
-11.26
-5.16
0.68
5.66
9.44
11.88
13.04
13.13
12.45
11.32
10.06
8.90
8.03
7.54
7.46
7.74
8.26
8.86
9.43
9.94
10.46
11.05
11.69
12.22
12.32
11.68
10.07
7.53
4.36
1.00
-2.14
-4.75
-6.75
-8.18
-9.17
-9.85
-10.34
-10.77
-11.26
-11.98
-13.08
-14.63
-16.57
-18.66
-20.48
-21.56
-21.42
-19.78
-16.58
-12.09
-6.81
-1.36
3.66
7.80
10.86
12.79
13.73
13.84
13.31
12.35
11.17
10.04
9.24
8.94
9.23
9.98
10.95
11.83
12.33
12.26
11.61
10.49
9.09
7.62
6.25
5.06
4.03
3.06
2.02
0.79
-0.67
-2.36
-4.18
-5.99
-7.62
-8.95
-9.97
-10.82
-11.78
-13.11
-14.97
-17.25
-19.61
-21.48
-22.32
-21.69
-19.44
-15.72
-10.91
-5.56
-0.21
4.67
8.74
11.80
13.79
14.77
14.91
14.49
13.80
13.13
12.68
12.54
12.71
13.07
13.47
13.78
13.88
13.71
13.26
12.61
11.87
11.13
10.39
9.58
8.53
7.13
5.35
3.28
1.10
-1.01
-2.90
-4.55
-5.95
-7.15
-8.17
-9.03
-9.77
-10.41
-11.01
-11.62
-12.32
-13.18
-14.26
-15.55
-16.84
-17.78
-17.89
-16.72
-14.03
-9.93
-4.84
0.61
5.73
10.00
13.13
15.05
15.80
15.43
14.05
11.81
9.05
6.25
3.98
2.67
2.46
3.18
4.41
5.67
6.58
6.92
6.68
5.90
4.75
3.43
2.18
1.26
0.79
0.72
0.81
0.74
0.24
-0.77
-2.14
-3.59
-4.87
-5.81
-6.46
-6.98
-7.54
-8.33
-9.40
-10.75
-12.25
-13.62
-14.48
-14.37
-12.91
-10.00
-5.89
-1.19
3.34
7.08
9.71
11.25
11.96
12.08
11.68
10.76
9.28
7.41
5.51
4.04
3.39
3.67
4.76
6.35
8.15
9.99
11.77
13.42
14.80
15.73
16.05
15.75
14.98
13.98
12.98
12.05
11.16
10.27
9.40
8.74
8.51
8.84
9.60
10.44
10.97
10.97
10.52
10.00
9.94
10.87
13.20
17.16
22.78
29.83
37.68
45.28
51.46
55.37
56.87
56.72
56.17
56.46
58.36
61.72
65.51
68.40
69.52
68.94
67.86
68.25
72.10
80.81
94.14
109.82
124.06
132.91
133.59
125.16
108.37
84.80
56.28
23.71
-13.36
-55.79
-103.49
-155.02
-208.46
-262.49
-316.79
-370.60
-421.88
-466.82
-499.72
-513.97
-504.44
-469.96
-413.92
-342.42
-260.89
-173.48
-84.19
1.80
77.96
137.24
173.96
186.29
174.08
144.26
111.42
89.33
81.14
78.71
70.31
48.74
15.62
-21.30
-51.24
-65.41
-60.76
-40.14
-9.30
26.57
64.57
102.15
138.32
173.65
207.98
238.57
260.64
269.99
265.47
249.66
227.82
205.77
187.88
175.21
165.50
155.25
142.57
128.38
115.69
107.42
104.82
106.86
110.70
113.15
112.45
109.18
105.71
104.57
106.95
112.20
118.44
123.50
126.04
126.11
124.92
123.91
123.68
123.24
120.18
111.43
94.33
67.69
32.21
-9.82
-55.17
-100.86
-144.88
-186.49
-226.10
-265.01
-305.12
-348.33
-395.48
-445.05
-492.41
-530.18
-550.23
-546.54
-517.43
-465.98
-398.44
-321.72
-241.52
-162.11
-87.31
-21.70
29.63
62.57
76.01
72.90
59.45
43.06
29.87
23.48
24.73
32.34
43.89
56.61
67.79
75.32
78.02
75.99
70.40
62.96
55.33
48.65
43.50
40.09
38.56
39.10
41.63
45.69
50.23
53.91
55.54
54.53
51.16
46.33
41.19
36.63
32.97
30.06
27.52
25.15
23.03
21.56
21.11
21.77
23.21
24.81
25.81
25.68
24.22
21.58
18.14
14.40
10.77
7.51
4.67
2.13
-0.26
-2.61
-4.81
-6.54
-7.31
-6.72
-4.66
-1.51
1.84
4.23
4.72
3.08
0.03
-2.88
-4.04
-2.56
1.10
5.25
7.66
6.58
1.52
-6.72
-16.47
-25.89
-33.31
-37.32
-36.67
-30.62
-19.56
-5.51
7.98
16.89
18.30
11.61
-1.28
-17.04
-32.46
-45.46
-55.10
-60.68
-60.76
-52.98
-34.96
-5.69
33.32
78.13
123.40
164.14
197.22
222.01
239.87
253.11
263.67
272.41
278.96
282.02
279.98
271.57
256.27
234.42
207.04
175.24
139.73
100.58
57.12
8.38
-46.37
-106.88
-171.39
-236.42
-297.04
-347.60
-382.80
-398.77
-393.90
-368.98
-326.68
-270.67
-205.02
-134.04
-62.60
3.62
58.65
97.51
117.80
120.63
110.29
92.57
72.66
53.70
36.56
21.01
7.19
-3.73
-9.92
-10.00
-4.07
6.10
17.80
28.52
36.61
41.61
43.86
44.06
42.95
41.25
39.58
38.41
37.79
37.26
35.95
32.84
26.97
17.45
3.48
-15.52
-39.25
-65.69
-90.67
-108.42
-113.42
-102.72
-77.71
-44.15
-10.46
15.31
28.35
28.54
19.74
7.77
-1.83
-5.38
-1.39
9.53
25.06
41.66
55.28
62.65
62.72
57.56
51.74
50.49
57.32
72.65
93.83
116.30
135.43
147.63
151.25
146.29
134.30
117.26
97.38
76.38
54.68
30.95
2.39
-33.55
-77.79
-127.95
-179.57
-226.38
-261.52
-279.46
-277.56
-257.40
-223.34
-181.94
-139.20
-101.11
-71.44
-50.74
-36.68
-25.33
-13.93
-0.61
13.64
26.64
33.39
29.01
11.32
-18.49
-56.35
-98.62
-141.82
-184.86
-212.76
-213.28
-184.13
-135.52
-82.40
-34.88
-4.47
10.76
11.86
-1.11
-30.72
-79.81
-144.20
-217.28
-280.01
-313.60
-305.65
-258.21
-185.13
-106.88
-41.20
2.94
26.27
37.01
44.69
55.13
69.46
87.36
107.50
128.67
149.91
170.20
182.86
182.48
167.65
141.74
113.20
91.48
82.99
88.70
104.33
123.16
139.16
148.65
150.14
143.74
130.06
110.47
88.20
68.66
58.46
63.22
84.51
118.53
157.10
190.40
210.01
211.33
194.37
162.94
123.20
81.32
41.88
7.11
-23.04
-49.92
-74.83
-98.00
-118.42
-134.16
-143.50
-145.48
-139.93
-127.12
-107.63
-82.39
-53.06
-22.14
7.33
32.28
50.35
60.49
63.22
60.43
54.89
49.44
46.17
46.01
48.74
53.51
59.66
67.10
76.28
87.63
100.85
114.64
127.05
136.02
140.09
138.76
132.43
122.13
109.33
95.74
83.09
72.73
65.22
60.07
55.98
51.46
45.61
38.72
32.20
27.94
27.35
30.60
36.57
43.38
49.50
54.57
59.63
66.48
76.66
90.60
107.31
124.92
141.55
156.02
168.07
178.15
186.74
194.02
199.71
203.09
203.06
198.18
186.87
167.86
140.98
107.80
71.80
37.63
9.68
-9.39
-19.54
-23.14
-23.75
-24.67
-27.70
-32.83
-38.68
-43.60
-46.62
-47.93
-48.70
-50.35
-53.83
-59.31
-66.47
-75.07
-85.78
-100.27
-120.73
-149.02
-185.63
-229.00
-275.56
-320.30
-357.81
-383.54
-395.09
-393.02
-380.78
-363.72
-347.44
-336.24
-332.11
-334.63
-341.52
-349.44
-354.63
-353.64
-343.71
-323.14
-291.52
-249.54
-198.26
-138.39
-70.35
4.56
82.42
155.63
213.75
246.80
249.18
223.11
178.83
131.26
94.86
78.51
83.51
104.74
133.82
162.55
185.61
201.36
210.88
216.57
220.46
223.96
227.95
233.12
239.55
247.19
255.50
262.80
266.34
262.05
246.87
220.52
186.04
147.14
108.70
75.27
49.56
32.27
19.94
7.84
-7.98
-29.90
-61.87
-104.78
-155.94
-210.44
-262.15
-310.87
-359.01
-409.51
-464.73
-530.62
-608.12
-691.18
-768.25
-824.16
-852.83
-854.08
-832.11
-794.66
-757.39
-731.10
-717.58
-710.55
-697.50
-675.53
-646.36
-613.43
-533.28
-389.34
-196.54
6.89
160.96
270.15
348.28
407.05
458.94
508.66
550.58
579.44
593.22
593.30
585.99
570.58
546.67
516.46
483.08
443.91
396.92
342.45
283.91
229.11
180.81
141.63
115.00
103.45
104.53
115.23
133.47
158.51
191.29
227.70
261.54
286.44
297.12
289.95
266.21
232.05
196.12
166.76
146.61
134.03
125.21
116.49
105.43
91.79
76.67
61.27
46.49
32.21
18.82
7.86
1.71
2.47
10.68
24.72
41.20
56.28
67.05
72.52
73.69
72.84
72.52
74.57
79.62
87.13
95.83
104.20
111.03
115.52
117.33
116.39
112.94
107.58
101.28
95.30
90.62
87.48
85.00
81.34
74.39
62.61
45.58
24.00
-0.81
-27.56
-55.28
-83.36
-111.20
-138.00
-162.94
-185.56
-206.20
-225.59
-244.19
-261.16
-274.22
-280.39
-277.61
-265.81
-246.80
-223.30
-197.75
-172.04
-147.99
-128.24
-116.32
-115.28
-125.24
-141.69
-155.93
-158.08
-141.26
-104.63
-53.82
1.70
52.55
92.55
119.88
135.93
143.28
144.08
139.55
130.62
118.67
106.02
95.30
88.36
85.43
85.11
84.98
82.59
76.43
66.41
53.82
40.59
28.56
18.86
11.55
5.79
0.39
-5.65
-12.57
-19.82
-26.21
-30.38
-31.17
-27.98
-20.93
-10.74
1.49
14.55
27.45
39.55
50.63
60.78
70.10
78.53
85.70
91.09
94.21
94.88
93.32
90.09
85.93
81.54
77.33
73.41
69.60
65.52
60.76
54.94
47.77
39.17
29.35
18.88
8.67
-0.60
-9.04
-18.20
-31.09
-51.49
-82.65
-125.97
-180.06
-240.72
-301.71
-356.04
-397.40
-421.34
-426.05
-412.48
-383.88
-344.90
-300.34
-254.09
-208.39
-163.70
-119.20
-73.74
-26.85
20.52
65.94
106.10
138.14
161.09
176.44
187.62
198.66
212.61
230.48
250.99
270.97
286.24
292.94
288.32
271.32
242.72
205.12
162.45
119.08
78.59
43.02
13.03
-11.99
-33.51
-53.42
-73.05
-92.26
-109.15
-120.74
-124.33
-118.18
-102.45
-79.18
-51.59
-22.56
6.50
35.85
66.46
95.07
116.31
124.96
118.48
97.08
63.07
20.62
-24.32
-64.62
-93.58
-107.10
-104.40
-87.15
-60.11
-30.04
-3.79
13.47
19.40
14.66
2.71
-12.84
-27.44
-38.13
-44.01
-45.54
-43.60
-38.95
-32.24
-24.03
-15.05
-5.88
2.99
11.79
21.60
33.55
47.75
62.66
75.60
83.84
85.93
81.78
72.62
60.32
46.66
32.84
19.43
6.77
-4.76
-14.64
-22.54
-28.45
-32.56
-35.13
-36.38
-36.54
-35.87
-34.85
-34.01
-33.92
-34.89
-36.79
-39.26
-41.88
-44.34
-46.48
-48.18
-49.14
-48.91
-47.03
-43.16
-37.31
-29.88
-21.47
-12.70
-4.00
4.35
12.13
19.01
24.65
28.61
30.60
30.87
30.29
30.08
31.20
33.86
37.35
40.68
42.72
42.90
41.69
40.35
40.32
42.46
46.71
52.25
58.46
64.48
69.62
73.57
76.30
78.09
79.66
82.05
86.27
93.28
102.25
110.29
113.23
106.99
89.31
61.05
25.87
-13.80
-51.56
-80.70
-97.62
-103.36
-102.18
-98.10
-93.00
-87.60
-83.24
-81.32
-83.11
-88.82
-94.80
-95.67
-85.76
-61.23
-22.16
26.64
79.17
130.41
177.84
220.99
258.40
283.89
292.61
282.65
253.99
210.87
160.57
110.93
67.41
29.49
-5.29
-38.12
-67.00
-91.78
-112.96
-131.97
-151.24
-174.37
-208.02
-255.63
-314.33
-373.42
-422.98
-454.53
-463.01
-447.57
-393.80
-303.24
-192.52
-97.50
-25.82
21.47
44.39
39.46
5.15
-55.79
-138.72
-233.87
-327.43
-403.11
-451.53
-469.51
-459.47
-427.56
-382.25
-334.21
-290.50
-252.67
-216.41
-178.85
-138.68
-95.80
-50.43
-2.93
45.11
92.85
140.36
189.05
238.33
286.85
333.85
380.04
427.36
477.29
530.32
584.52
635.10
673.65
691.31
682.21
645.96
587.59
515.29
437.70
361.65
291.36
228.52
173.64
126.97
88.53
57.48
31.76
8.54
-14.71
-39.13
-64.02
-87.26
-106.34
-119.49
-126.44
-128.34
-127.26
-125.21
-123.42
-122.10
-120.76
-118.96
-116.94
-115.75
-116.82
-121.11
-128.36
-136.96
-144.49
-148.69
-148.47
-144.25
-137.58
-130.23
-123.28
-116.87
-110.45
-103.48
-95.96
-88.55
-82.21
-77.73
-75.34
-74.69
-75.23
-76.54
-78.55
-81.40
-85.10
-89.16
-92.55
-93.98
-92.34
-87.07
-78.29
-66.51
-52.36
-36.24
-18.41
0.65
19.99
38.13
53.36
64.41
70.88
73.38
73.11
71.32
68.85
66.05
62.94
59.56
56.11
52.93
50.26
48.04
45.96
43.64
40.91
37.91
34.99
32.55
30.69
29.14
27.35
24.71
20.80
15.61
9.44
2.89
-3.39
-8.86
-13.16
-16.20
-18.10
-19.15
-19.70
-20.00
-20.17
-20.04
-19.35
-17.82
-15.36
-12.12
-8.48
-4.87
-1.56
1.40
4.13
6.77
9.35
11.73
13.71
15.15
16.13
16.88
17.73
18.89
20.40
22.12
23.84
25.29
26.33
26.91
27.04
26.83
26.35
25.63
24.65
23.31
21.52
19.26
16.61
13.84
11.32
9.47
8.67
9.19
11.08
14.19
18.18
22.62
27.08
31.19
34.68
37.42
39.33
40.43
40.70
40.21
39.02
37.22
34.97
32.43
29.82
27.33
25.14
23.36
21.95
20.72
19.38
17.66
15.43
12.76
9.92
7.22
4.80
2.66
0.63
-1.43
-3.51
-5.45
-7.05
-8.21
-9.01
-9.63
-10.17
-10.57
-10.55
-9.75
-7.94
-5.09
-1.43
2.63
6.68
10.39
13.58
16.20
18.27
19.85
21.01
21.83
22.34
22.64
22.78
22.83
22.84
22.81
22.71
22.49
22.05
21.29
20.10
18.47
16.48
14.30
12.14
10.16
8.39
6.73
4.97
2.97
0.68
-1.81
-4.33
-6.75
-9.00
-11.14
-13.28
-15.59
-18.12
-20.85
-23.57
-25.94
-27.56
-28.02
-27.09
-24.72
-21.10
-16.59
-11.62
-6.58
-1.79
2.54
6.29
9.44
12.01
14.10
15.81
17.22
18.40
19.37
20.17
20.84
21.46
22.07
22.69
23.28
23.81
24.26
24.69
25.13
25.59
25.95
26.03
25.61
24.54
22.80
20.52
17.96
15.36
12.92
10.69
8.60
6.44
4.01
1.11
-2.34
-6.37
-10.91
-15.87
-21.07
-26.22
-30.88
-34.52
-36.64
-36.93
-35.37
-32.28
-28.18
-23.68
-19.22
-15.10
-11.39
-8.13
-5.34
-3.07
-1.31
0.02
1.28
2.85
4.99
7.75
10.93
14.25
17.47
20.40
22.97
25.26
27.33
29.14
30.55
31.32
31.28
30.33
28.43
25.59
22.15
18.42
14.58
10.60
6.40
1.98
-2.55
-7.03
-11.38
-14.78
-16.68
-17.03
-16.32
-15.27
-14.27
-13.26
-11.94
-10.00
-5.62
2.53
14.53
29.03
43.78
56.89
67.19
74.32
78.35
82.38
89.22
100.09
113.96
128.36
141.10
151.10
158.27
163.19
170.35
183.75
205.26
233.65
265.60
298.19
329.81
360.10
366.63
334.68
262.06
162.39
56.71
-38.43
-115.34
-173.50
-215.95
-246.62
-265.65
-273.02
-270.03
-258.87
-244.98
-232.52
-223.64
-218.78
-217.33
-215.51
-209.95
-199.08
-183.79
-166.84
-150.63
-136.57
-125.60
-117.80
-111.17
-103.78
-94.65
-84.22
-74.02
-65.25
-58.55
-53.98
-51.18
-48.87
-45.93
-41.86
-36.98
-32.16
-28.09
-25.07
-23.08
-21.92
-21.11
-20.35
-19.64
-19.22
-19.44
-20.38
-21.95
-24.00
-26.38
-29.09
-32.16
-35.58
-39.23
-42.85
-46.13
-48.84
-50.94
-52.62
-54.33
-56.57
-59.67
-63.51
-67.39
-70.10
-70.39
-67.30
-60.58
-50.69
-38.49
-24.76
-9.74
6.84
25.48
46.16
67.95
88.83
106.17
117.66
122.25
120.67
115.14
108.47
102.74
98.30
93.71
86.41
74.06
55.73
32.40
6.47
-18.96
-41.03
-57.61
-67.18
-69.07
-64.03
-55.01
-47.21
-46.51
-56.53
-75.82
-97.17
-109.99
-105.23
-80.07
-39.76
4.89
42.88
68.32
82.77
93.18
107.13
128.16
154.07
178.82
196.41
204.27
204.11
200.30
196.93
195.60
194.76
191.33
182.83
168.91
151.35
132.53
113.95
95.43
75.36
51.92
24.50
-5.52
-35.03
-60.21
-78.33
-88.30
-90.95
-88.88
-85.79
-85.28
-89.51
-98.38
-109.63
-120.54
-128.16
-130.02
-124.89
-113.45
-98.21
-82.82
-70.88
-64.91
-66.80
-75.97
-89.24
-102.37
-112.50
-119.41
-124.85
-130.78
-138.12
-147.83
-159.63
-171.90
-182.62
-190.31
-194.12
-193.38
-187.69
-166.49
-127.92
-80.49
-36.93
-4.30
19.14
39.65
62.37
88.42
114.50
136.61
151.81
159.95
163.11
163.48
161.72
157.11
148.76
135.25
116.41
93.79
70.66
50.73
36.36
27.33
21.42
15.74
8.08
-2.92
-17.14
-32.63
-46.24
-54.45
-54.95
-47.05
-31.86
-12.48
5.86
16.98
17.11
4.83
-16.13
-38.51
-55.27
-62.71
-61.28
-54.13
-44.33
-32.87
-20.61
-4.85
15.59
39.24
63.22
84.49
100.00
106.95
103.56
89.61
65.62
34.46
0.03
-32.87
-57.74
-70.49
-72.20
-68.46
-65.21
-65.10
-67.09
-68.15
-63.75
-49.10
-21.29
18.68
64.67
106.42
133.03
137.54
119.75
87.48
52.60
24.64
6.77
-4.40
-15.13
-30.50
-48.16
-63.45
-69.85
-60.97
-35.20
3.20
45.22
80.35
100.01
100.56
82.11
49.88
11.99
-23.87
-52.96
-73.96
-87.96
-96.64
-100.55
-102.27
-104.44
-110.17
-122.66
-144.42
-175.27
-211.85
-248.50
-263.50
-245.32
-196.09
-130.34
-65.60
-14.43
18.30
34.83
38.96
33.26
17.33
-7.95
-38.83
-67.71
-87.46
-91.78
-78.65
-50.41
-11.57
31.40
73.74
113.12
150.86
187.60
220.89
244.88
253.05
241.96
212.52
171.34
128.72
97.85
87.80
99.60
126.32
158.02
187.23
211.82
234.21
241.52
225.46
186.40
133.79
79.58
33.26
0.03
-19.42
-29.21
-36.06
-42.78
-48.22
-48.99
-42.83
-28.69
-11.82
1.77
7.26
2.97
-7.35
-17.92
-24.43
-25.57
-22.32
-16.84
-10.59
-4.36
2.01
8.79
17.31
28.12
40.41
52.50
62.48
69.25
72.45
72.34
69.94
66.09
60.46
52.02
40.22
25.72
10.74
-2.23
-11.77
-18.32
-24.15
-32.54
-45.86
-64.16
-85.14
-105.15
-120.92
-130.68
-134.38
-133.01
-128.12
-121.08
-113.04
-105.32
-99.36
-96.38
-96.65
-99.21
-102.06
-103.31
-101.27
-94.77
-83.64
-68.93
-52.63
-37.17
-24.92
-17.49
-16.12
-19.97
-26.30
-31.96
-35.01
-35.24
-33.77
-32.33
-32.51
-36.43
-43.95
-52.56
-59.04
-61.46
-59.77
-55.57
-51.49
-50.51
-56.53
-70.24
-88.19
-104.59
-114.03
-112.75
-99.21
-74.38
-30.41
28.38
88.49
137.43
170.86
189.27
193.38
183.08
159.17
125.34
86.41
49.03
18.17
-3.23
-15.36
-19.68
-16.88
-6.70
11.52
35.98
64.15
93.27
120.53
142.21
156.54
164.21
166.08
162.58
152.58
135.83
114.39
92.65
75.81
67.98
70.18
77.68
84.20
85.14
79.74
70.00
57.77
42.51
21.14
-9.89
-54.34
-109.16
-163.14
-201.02
-211.55
-193.24
-155.03
-112.21
-80.22
-73.42
-96.72
-144.18
-203.27
-261.66
-310.76
-345.24
-361.50
-334.43
-256.07
-143.83
-29.38
64.22
131.28
177.50
211.48
238.82
261.63
272.36
263.96
235.83
193.95
146.63
100.48
58.62
20.43
-13.56
-45.29
-74.31
-96.56
-106.65
-101.99
-84.20
-57.51
-26.11
7.31
38.78
64.86
83.04
91.76
90.18
78.89
60.50
39.00
18.31
-0.34
-16.82
-30.73
-41.00
-46.53
-47.10
-43.87
-39.34
-36.60
-39.06
-48.89
-66.14
-88.55
-112.20
-132.34
-144.72
-147.14
-140.18
-127.11
-112.18
-98.41
-86.24
-73.68
-57.80
-36.67
-10.31
19.58
50.81
81.70
111.36
139.09
163.73
183.66
197.42
204.57
205.77
202.32
195.14
184.53
170.33
152.75
132.86
112.29
92.49
74.09
56.77
39.85
23.11
7.08
-7.02
-17.93
-24.99
-28.39
-28.99
-27.84
-25.76
-23.12
-20.00
-16.45
-12.68
-9.18
-6.51
-5.13
-5.20
-6.54
-8.71
-11.17
-13.34
-14.73
-14.96
-13.81
-11.23
-7.40
-2.62
2.70
8.17
13.47
18.36
22.66
26.18
28.85
30.69
31.89
32.82
33.90
35.48
37.70
40.52
43.79
47.25
50.50
52.82
53.14
50.29
43.27
31.77
16.36
-1.54
-20.12
-37.72
-53.33
-66.70
-78.20
-88.40
-97.74
-106.21
-113.36
-118.49
-120.97
-120.62
-117.86
-113.63
-109.04
-104.94
-101.51
-98.30
-94.49
-89.39
-82.81
-75.20
-67.42
-60.34
-54.47
-49.76
-45.74
-41.66
-36.66
-30.03
-21.25
-10.37
2.08
15.10
27.29
37.22
44.09
48.36
51.87
57.21
66.39
80.03
96.76
113.62
127.07
134.30
134.23
127.68
116.59
102.51
86.56
69.30
51.08
32.40
14.30
-1.66
-13.70
-20.65
-23.75
-24.68
-24.96
-25.65
-27.47
-30.55
-34.10
-36.42
-36.01
-34.81
-34.62
-36.50
-40.98
-48.56
-59.48
-72.58
-84.89
-93.60
-100.87
-108.19
-115.66
-123.05
-131.63
-144.84
-166.56
-198.93
-242.50
-299.27
-363.83
-423.65
-464.50
-477.93
-465.77
-438.11
-407.88
-351.60
-264.16
-157.98
-53.59
35.39
104.23
150.99
170.17
169.43
156.95
136.23
113.15
95.47
89.31
100.47
126.41
160.40
195.86
227.08
247.91
257.74
260.48
260.91
261.39
261.06
258.99
256.03
252.19
243.44
224.78
191.95
142.45
76.70
-1.56
-84.67
-162.53
-226.34
-271.23
-295.00
-296.84
-278.63
-245.08
-202.91
-158.34
-115.60
-77.38
-45.59
-21.39
-3.58
8.47
14.93
17.01
18.34
23.91
37.79
61.38
93.49
134.70
183.97
238.48
294.23
347.00
391.99
424.36
440.78
441.73
435.44
429.25
425.39
420.71
410.11
389.30
356.90
314.72
243.27
144.32
38.08
-52.24
-116.62
-157.17
-180.30
-191.28
-194.67
-193.73
-187.25
-176.18
-164.39
-157.46
-156.55
-159.58
-162.57
-162.60
-158.34
-147.76
-132.75
-118.59
-110.79
-111.45
-119.34
-125.25
-123.44
-112.54
-93.50
-70.39
-47.92
-29.19
-14.45
-2.37
8.50
17.85
24.74
29.79
33.59
36.69
39.31
41.78
44.23
46.53
46.95
44.28
38.57
30.41
20.63
10.03
-0.71
-11.17
-21.24
-28.24
-33.63
-38.15
-41.84
-44.33
-45.28
-44.59
-42.49
-39.40
-36.01
-33.28
-31.30
-29.81
-28.40
-26.73
-24.74
-22.59
-20.56
-18.97
-18.31
-18.32
-18.50
-18.32
-17.49
-16.13
-14.71
-13.85
-13.99
-15.42
-17.65
-19.83
-21.15
-21.20
-20.25
-19.13
-18.94
-20.39
-23.71
-28.17
-32.51
-35.60
-36.89
-36.64
-35.82
-35.55
-36.71
-40.05
-45.95
-54.29
-63.84
-71.91
-74.57
-68.01
-50.79
-24.19
6.78
35.55
56.58
67.50
69.61
66.46
61.68
57.29
53.50
49.46
44.71
39.77
35.84
33.83
33.73
34.49
34.72
33.28
29.90
25.31
20.73
17.36
15.75
15.68
16.28
16.47
15.52
13.26
10.17
7.04
4.60
3.24
2.79
2.77
2.55
1.71
0.14
-1.93
-4.08
-5.94
-7.35
-8.35
-9.17
-10.11
-11.36
-12.95
-14.81
-16.77
-18.71
-20.55
-22.31
-24.07
-25.90
-27.88
-30.02
-32.30
-34.68
-37.09
-39.46
-41.68
-43.57
-44.96
-45.65
-45.43
-44.10
-41.53
-37.66
-32.51
-26.26
-19.11
-11.37
-3.41
4.35
11.53
17.82
22.99
26.94
29.65
31.20
31.69
31.29
30.14
28.45
26.41
24.18
21.90
19.67
17.50
15.41
13.34
11.27
9.14
6.99
4.86
2.82
0.91
-0.90
-2.65
-4.44
-6.39
-8.56
-10.88
-13.19
-15.29
-17.04
-18.50
-19.72
-20.95
-22.43
-24.28
-26.35
-28.29
-29.64
-30.12
-29.78
-28.75
-27.50
-26.52
-26.03
-25.84
-25.31
-23.68
-20.40
-15.43
-8.90
-1.30
6.79
15.21
24.36
35.19
49.16
68.14
91.48
119.40
151.50
186.00
219.44
247.15
264.58
268.88
260.05
240.85
216.00
189.95
165.56
143.79
124.36
106.68
90.57
76.14
63.36
51.99
41.14
29.82
17.41
3.95
-10.00
-23.61
-36.24
-47.67
-57.89
-67.23
-76.02
-84.48
-92.51
-99.77
-105.80
-110.23
-112.97
-114.05
-113.70
-112.09
-109.21
-104.87
-98.84
-91.11
-81.97
-72.10
-62.33
-53.44
-46.04
-40.36
-36.30
-33.52
-31.51
-29.82
-28.09
-26.20
-24.19
-22.20
-20.37
-18.75
-17.33
-16.08
-15.03
-14.26
-13.86
-13.91
-14.38
-15.22
-16.40
-17.97
-20.01
-22.55
-25.53
-28.72
-31.87
-34.81
-37.56
-40.28
-43.20
-46.35
-49.44
-51.85
-52.78
-51.57
-48.00
-42.34
-35.37
-28.07
-21.34
-15.68
-11.17
-7.44
-3.84
0.27
5.35
11.57
18.63
25.84
32.34
37.39
40.93
43.85
47.74
54.36
64.61
77.80
91.54
102.52
107.79
106.05
98.08
86.16
73.10
61.19
51.65
44.72
40.10
37.27
35.67
34.58
32.86
29.46
23.79
16.01
7.10
-1.72
-9.68
-17.00
-24.69
-34.25
-46.09
-58.71
-68.88
-72.95
-68.90
-58.06
-45.04
-35.78
-35.27
-44.71
-61.52
-80.98
-99.09
-114.64
-129.19
-145.25
-159.77
-167.75
-163.34
-143.38
-109.54
-68.17
-27.19
7.45
33.89
53.93
70.45
85.59
98.88
108.21
111.11
106.29
94.55
78.66
61.78
46.45
33.64
21.70
8.09
-9.69
-33.27
-63.21
-98.84
-138.01
-177.03
-206.13
-218.17
-209.01
-179.60
-136.41
-89.48
-48.79
-20.63
-6.01
-1.28
-2.03
-4.67
-7.74
-11.26
-15.29
-18.80
-19.71
-15.79
-5.47
10.37
29.72
50.04
69.38
86.88
102.85
118.32
132.17
144.75
155.67
164.12
169.00
169.44
165.26
157.25
146.91
136.09
126.68
119.40
114.10
110.28
107.56
105.77
104.46
102.21
96.55
85.10
66.51
41.97
15.05
-9.55
-28.24
-39.90
-45.85
-48.45
-49.10
-47.77
-43.40
-35.28
-24.14
-12.31
-2.83
1.78
0.30
-6.95
-18.63
-32.69
-46.84
-58.92
-67.32
-71.45
-71.82
-69.81
-67.12
-64.94
-63.46
-61.94
-59.03
-54.01
-47.59
-42.24
-41.09
-45.98
-55.53
-64.61
-66.14
-54.08
-27.23
10.03
49.17
81.35
100.84
106.03
98.33
79.96
52.76
19.12
-16.06
-44.84
-58.53
-52.31
-28.84
1.89
26.86
36.08
27.18
5.55
-19.49
-39.70
-51.78
-58.23
-63.75
-71.03
-78.09
-79.02
-67.03
-39.03
1.63
45.18
78.49
90.66
77.56
43.74
0.99
-36.55
-58.62
-61.22
-47.24
-23.89
1.21
23.27
41.34
57.12
72.33
86.34
95.71
95.08
80.37
51.76
14.94
-20.29
-44.10
-50.85
-41.48
-22.53
-2.78
10.77
15.69
13.86
9.10
4.27
-0.26
-6.15
-15.08
-26.97
-39.32
-48.31
-50.70
-45.69
-35.38
-23.64
-14.45
-10.09
-10.63
-14.09
-17.77
-19.51
-18.35
-14.65
-9.59
-4.56
-0.53
2.29
4.66
7.64
11.96
17.64
23.77
28.88
31.54
31.02
26.13
17.53
6.88
-3.75
-12.68
-19.01
-22.70
-24.26
-24.44
-23.87
-22.77
-21.33
-19.79
-18.45
-17.57
-17.24
-17.41
-17.96
-18.90
-20.28
-22.32
-25.21
-28.89
-33.00
-36.97
-40.16
-42.11
-42.51
-41.07
-37.63
-32.16
-24.78
-15.82
-5.77
4.73
14.97
24.13
31.44
36.25
38.22
37.55
34.96
31.42
27.86
24.75
22.11
19.67
17.32
15.35
14.52
15.48
18.22
21.76
24.34
24.07
19.52
10.01
-4.52
-23.67
-46.52
-71.18
-94.35
-111.58
-118.28
-111.39
-90.82
-59.94
-24.54
9.01
35.81
53.39
61.64
61.91
56.02
45.83
33.27
20.86
11.50
7.64
9.90
16.15
21.74
21.24
10.92
-9.15
-34.86
-59.59
-76.90
-82.83
-76.80
-60.74
-37.44
-9.12
22.94
57.59
92.64
124.50
148.78
161.78
161.99
150.86
132.53
112.53
96.13
86.97
86.32
93.21
104.92
118.08
129.66
137.61
141.23
140.95
137.82
132.82
126.49
118.81
109.58
98.83
87.00
74.76
62.65
50.80
38.95
26.76
14.02
0.74
-13.10
-27.70
-43.39
-60.24
-77.63
-94.05
-107.61
-116.80
-121.17
-121.61
-119.79
-117.40
-115.54
-114.61
-114.75
-116.21
-119.33
-124.15
-129.74
-133.97
-133.99
-127.22
-112.50
-90.64
-64.08
-35.95
-8.94
15.38
36.52
54.45
68.94
79.21
84.16
83.01
75.97
64.52
50.98
37.86
26.94
18.87
13.21
8.92
4.98
0.87
-3.34
-7.19
-10.18
-12.16
-13.37
-14.33
-15.53
-17.22
-19.26
-21.26
-22.77
-23.55
-23.72
-23.63
-23.73
-24.32
-25.48
-27.12
-29.04
-31.09
-33.11
-34.84
-35.96
-36.00
-34.65
-31.87
-27.93
-23.34
-18.62
-14.11
-9.96
-6.14
-2.59
0.66
3.51
5.85
7.60
8.73
9.27
9.23
8.67
7.69
6.45
5.13
3.89
2.79
1.81
0.88
-0.10
-1.20
-2.46
-3.87
-5.41
-6.96
-8.38
-9.54
-10.34
-10.79
-11.01
-11.18
-11.51
-12.21
-13.37
-14.94
-16.67
-18.16
-18.92
-18.52
-16.72
-13.54
-9.27
-4.37
0.69
5.46
9.60
12.86
15.08
16.21
16.32
15.63
14.46
13.14
11.98
11.16
10.75
10.68
10.83
11.02
11.15
11.14
10.98
10.65
10.13
9.34
8.17
6.55
4.50
2.10
-0.48
-3.09
-5.63
-8.04
-10.29
-12.42
-14.48
-16.54
-18.70
-20.98
-23.27
-25.28
-26.55
-26.65
-25.26
-22.36
-18.24
-13.37
-8.27
-3.36
1.09
4.90
7.99
10.28
11.73
12.41
12.49
12.27
12.05
12.05
12.31
12.71
13.06
13.20
13.03
12.57
11.85
10.93
9.82
8.54
7.10
5.55
3.91
2.20
0.47
-1.25
-2.90
-4.49
-6.08
-7.83
-9.94
-12.54
-15.56
-18.66
-21.33
-22.95
-23.03
-21.36
-18.05
-13.52
-8.39
-3.34
1.11
4.64
7.18
8.82
9.67
9.83
9.25
7.87
5.72
3.01
0.18
-2.20
-3.66
-4.05
-3.62
-3.01
-2.96
-4.03
-6.39
-9.76
-13.57
-17.18
-20.22
-22.75
-25.33
-28.74
-33.70
-40.51
-48.79
-57.47
-64.89
-69.10
-68.38
-61.80
-49.68
-33.79
-16.89
-1.96
8.47
12.79
10.28
0.85
-15.26
-37.32
-63.85
-92.19
-118.50
-138.32
-147.38
-142.73
-123.30
-89.82
-44.64
8.44
64.34
117.30
162.17
195.95
218.63
232.95
242.62
250.11
255.35
256.05
249.51
234.67
213.16
188.48
164.23
142.55
123.52
105.58
86.55
64.55
38.89
10.98
-15.22
-33.76
-38.60
-26.55
0.94
37.77
75.68
107.79
131.24
147.18
158.35
165.98
168.20
161.06
141.32
109.30
69.73
30.27
-1.55
-21.20
-28.59
-27.59
-23.97
-23.09
-28.33
-40.79
-60.14
-85.68
-116.96
-153.47
-193.71
-234.44
-270.93
-298.11
-312.28
-312.34
-299.93
-278.43
-251.43
-221.64
-190.59
-159.14
-128.21
-99.26
-74.10
-54.44
-41.31
-34.83
-34.18
-37.83
-43.79
-49.98
-54.49
-55.85
-53.18
-46.20
-35.18
-20.89
-4.59
12.10
27.45
39.95
48.75
53.77
55.64
55.26
53.42
50.59
46.90
42.47
37.52
32.55
28.13
24.69
22.33
20.75
19.49
18.07
16.27
14.19
12.17
10.70
10.17
10.81
12.59
15.28
18.53
21.94
25.14
27.84
29.86
31.12
31.62
31.31
30.15
28.08
25.14
21.50
17.58
13.92
11.01
9.13
8.20
7.81
7.39
6.43
4.73
2.35
-0.41
-3.26
-5.97
-8.48
-10.81
-12.96
-14.93
-16.71
-18.29
-19.74
-21.15
-22.52
-23.71
-24.38
-24.06
-22.31
-18.86
-13.76
-7.39
-0.39
6.52
12.69
17.73
21.48
23.98
25.31
25.59
24.93
23.50
21.59
19.57
17.84
16.64
16.01
15.75
15.55
15.11
14.28
13.10
11.71
10.25
8.80
7.32
5.72
3.91
1.84
-0.50
-3.09
-5.92
-9.03
-12.43
-16.01
-19.48
-22.34
-24.00
-23.94
-21.90
-18.04
-12.89
-7.22
-1.82
2.61
5.58
6.82
6.35
4.57
2.35
0.92
1.55
5.01
11.22
19.14
27.14
33.63
37.63
39.03
38.39
36.51
33.95
30.92
27.34
23.16
18.56
13.95
9.78
6.31
3.55
1.27
-0.85
-3.09
-5.61
-8.47
-11.65
-15.02
-18.36
-21.32
-23.44
-24.23
-23.37
-20.77
-16.66
-11.52
-5.92
-0.35
4.84
9.40
13.16
15.82
17.06
16.59
14.43
11.05
7.34
4.40
3.13
3.92
6.61
10.53
14.79
18.49
20.85
21.31
19.68
16.26
11.88
7.65
4.60
3.21
3.16
3.62
3.70
3.02
1.90
1.16
1.55
3.33
6.07
8.92
11.01
11.88
11.59
10.65
9.66
9.09
9.17
9.86
10.94
12.00
12.52
11.93
9.84
6.27
1.83
-2.42
-5.25
-5.74
-3.57
0.87
6.74
13.04
18.98
24.04
27.93
30.49
31.60
31.22
29.43
26.50
22.81
18.80
14.87
11.32
8.24
5.53
2.94
0.20
-2.85
-6.17
-9.50
-12.53
-14.99
-16.84
-18.22
-19.42
-20.74
-22.35
-24.33
-26.62
-29.12
-31.66
-34.05
-35.98
-37.04
-36.81
-34.99
-31.53
-26.67
-20.89
-14.81
-8.98
-3.81
0.46
3.71
5.93
7.15
7.50
7.22
6.59
5.93
5.50
5.39
5.58
5.95
6.36
6.73
7.01
7.19
7.25
7.17
6.89
6.42
5.77
5.00
4.14
3.22
2.20
1.07
-0.13
-1.35
-2.50
-3.58
-4.66
-5.86
-7.24
-8.76
-10.28
-11.58
-12.57
-13.31
-14.03
-15.03
-16.55
-18.64
-21.13
-23.71
-25.92
-27.30
-27.44
-26.08
-23.11
-18.71
-13.24
-7.27
-1.38
3.84
7.98
10.78
12.21
12.42
11.72
10.49
9.03
7.62
6.40
5.42
4.76
4.43
4.44
4.71
5.10
5.39
5.40
5.05
4.36
3.38
2.16
0.72
-1.03
-3.12
-5.52
-8.08
-10.60
-12.84
-14.71
-16.25
-17.66
-19.12
-20.75
-22.40
-23.79
-24.54
-24.40
-23.34
-21.58
-19.50
-17.53
-16.03
-15.15
-14.85
-14.82
-14.57
-13.55
-11.31
-7.75
-3.13
1.96
6.80
10.76
13.46
14.74
14.64
13.32
11.00
8.02
4.75
1.60
-1.12
-3.26
-4.79
-5.74
-6.15
-6.00
-5.30
-4.12
-2.64
-1.11
0.25
1.33
2.17
2.96
3.90
5.13
6.58
8.08
9.35
10.16
10.40
10.08
9.28
8.12
6.65
4.86
2.71
0.14
-2.84
-6.19
-9.81
-13.50
-16.94
-19.75
-21.48
-21.74
-20.37
-17.43
-13.32
-8.63
-4.00
-0.01
3.03
5.08
6.31
7.05
7.58
8.13
8.87
9.92
11.34
13.14
15.29
17.57
19.74
21.57
22.89
23.65
23.87
23.55
22.67
21.20
19.17
16.70
13.93
11.04
8.12
5.17
2.19
-0.76
-3.57
-6.09
-8.26
-10.14
-11.96
-13.97
-16.35
-19.16
-22.34
-25.67
-28.84
-31.43
-32.97
-33.01
-31.24
-27.61
-22.35
-15.91
-8.85
-1.71
5.09
11.29
16.72
21.26
24.85
27.49
29.22
30.18
30.54
30.44
30.04
29.40
28.59
27.59
26.41
24.99
23.28
21.25
18.91
16.39
13.85
11.48
9.36
7.41
5.38
3.00
0.10
-3.22
-6.68
-9.88
-12.53
-14.58
-16.24
-17.85
-19.74
-22.08
-24.84
-27.84
-30.79
-33.30
-34.96
-35.33
-34.12
-31.21
-26.77
-21.22
-15.10
-8.90
-3.01
2.34
7.05
11.11
14.49
17.21
19.31
20.88
22.10
23.16
24.17
25.18
26.06
26.62
26.69
26.17
25.07
23.52
21.64
19.60
17.48
15.34
13.20
10.98
8.59
5.97
3.14
0.25
-2.51
-4.95
-7.03
-8.85
-10.56
-12.35
-14.33
-16.53
-18.91
-21.32
-23.53
-25.17
-25.89
-25.40
-23.67
-20.91
-17.55
-14.08
-10.94
-8.43
-6.73
-5.89
-5.83
-6.36
-7.08
-7.55
-7.28
-5.96
-3.52
-0.12
3.90
8.09
12.01
15.37
18.03
20.02
21.38
22.13
22.21
21.54
20.05
17.82
15.06
12.07
9.10
6.31
3.74
1.35
-0.94
-3.20
-5.46
-7.76
-10.09
-12.30
-14.15
-15.29
-15.39
-14.27
-11.98
-8.86
-5.45
-2.33
0.04
1.42
1.80
1.31
0.14
-1.57
-3.71
-6.09
-8.44
-10.37
-11.45
-11.41
-10.21
-8.01
-5.15
-1.95
1.38
4.75
8.11
11.35
14.25
16.58
18.08
18.68
18.41
17.44
15.98
14.24
12.36
10.47
8.61
6.76
4.81
2.60
0.03
-2.81
-5.56
-7.69
-8.66
-8.13
-6.12
-2.98
0.74
4.50
7.87
10.60
12.52
13.53
13.50
12.46
10.54
8.04
5.35
2.85
0.81
-0.68
-1.67
-2.34
-2.91
-3.59
-4.46
-5.54
-6.76
-8.04
-9.36
-10.74
-12.25
-13.94
-15.78
-17.62
-19.21
-20.31
-20.71
-20.32
-19.17
-17.35
-15.04
-12.46
-9.83
-7.36
-5.24
-3.51
-2.05
-0.57
1.29
3.88
7.30
11.35
15.61
19.50
22.57
24.51
25.28
24.95
23.68
21.60
18.88
15.74
12.50
9.50
7.04
5.29
4.22
3.63
3.26
2.81
2.11
1.08
-0.24
-1.75
-3.36
-5.03
-6.80
-8.73
-10.88
-13.22
-15.63
-17.95
-20.01
-21.70
-22.98
-23.87
-24.36
-24.44
-24.10
-23.31
-22.03
-20.17
-17.57
-14.03
-9.45
-3.87
2.40
8.87
14.95
20.14
24.16
26.96
28.63
29.25
28.87
27.48
25.15
22.15
18.94
16.02
13.76
12.24
11.23
10.40
9.43
8.23
6.89
5.55
4.27
2.96
1.42
-0.55
-3.00
-5.82
-8.79
-11.67
-14.27
-16.50
-18.39
-20.04
-21.56
-23.07
-24.65
-26.32
-28.03
-29.56
-30.58
-30.62
-29.23
-26.03
-20.86
-13.85
-5.49
3.45
12.03
19.42
25.03
28.66
30.48
30.86
30.19
28.76
26.79
24.45
22.05
19.90
18.31
17.35
16.82
16.41
15.75
14.70
13.30
11.71
10.06
8.39
6.63
4.68
2.54
0.29
-1.91
-3.99
-5.92
-7.76
-9.51
-11.13
-12.54
-13.68
-14.65
-15.69
-17.09
-19.03
-21.42
-23.85
-25.65
-26.17
-24.94
-21.89
-17.31
-11.76
-5.82
0.00
5.35
10.02
13.88
16.85
18.91
20.14
20.67
20.70
20.41
19.94
19.36
18.68
17.88
16.92
15.77
14.45
13.01
11.51
9.99
8.41
6.71
4.81
2.68
0.32
-2.17
-4.62
-6.92
-8.94
-10.67
-12.19
-13.63
-15.15
-16.85
-18.74
-20.74
-22.74
-24.67
-26.48
-28.10
-29.40
-30.09
-29.77
-28.02
-24.58
-19.42
-12.80
-5.22
2.66
10.18
16.74
21.90
25.42
27.28
27.65
26.89
25.44
23.76
22.24
21.11
20.42
20.04
19.75
19.33
18.66
17.72
16.58
15.31
13.91
12.36
10.64
8.77
6.80
4.84
2.97
1.20
-0.49
-2.10
-3.65
-5.13
-6.50
-7.78
-9.02
-10.28
-11.63
-13.11
-14.73
-16.48
-18.27
-19.94
-21.24
-21.85
-21.50
-20.05
-17.61
-14.58
-11.47
-8.80
-6.87
-5.75
-5.25
-5.10
-5.02
-4.83
-4.39
-3.58
-2.26
-0.30
2.33
5.53
9.06
12.56
15.71
18.25
20.04
21.07
21.40
21.07
20.18
18.75
16.84
14.55
11.98
9.34
6.81
4.57
2.69
1.16
-0.17
-1.48
-2.96
-4.73
-6.82
-9.09
-11.29
-13.07
-14.05
-13.97
-12.72
-10.47
-7.58
-4.56
-1.90
0.04
1.10
1.28
0.74
-0.38
-1.93
-3.81
-5.88
-7.96
-9.76
-10.98
-11.36
-10.77
-9.28
-7.13
-4.63
-2.03
0.54
3.07
5.59
8.07
10.34
12.09
13.04
13.06
12.25
10.94
9.53
8.32
7.40
6.58
5.54
3.98
1.77
-0.96
-3.88
-6.51
-8.43
-9.31
-9.06
-7.76
-5.60
-2.85
0.20
3.25
5.99
8.16
9.55
10.14
9.99
9.29
8.25
7.01
5.65
4.26
2.97
1.98
1.50
1.62
2.24
3.11
3.92
4.46
4.68
4.68
4.58
4.43
4.17
3.70
2.93
1.85
0.54
-0.82
-2.12
-3.24
-4.16
-4.91
-5.58
-6.22
-6.95
-7.82
-8.89
-10.13
-11.45
-12.62
-13.29
-13.09
-11.73
-9.19
-5.70
-1.75
2.13
5.50
8.11
9.89
10.85
11.02
10.49
9.37
7.91
6.37
5.03
4.06
3.50
3.28
3.28
3.38
3.47
3.41
3.09
2.48
1.59
0.52
-0.62
-1.74
-2.85
-4.02
-5.31
-6.79
-8.41
-10.13
-11.87
-13.61
-15.31
-16.96
-18.53
-20.00
-21.36
-22.62
-23.80
-24.86
-25.72
-26.22
-26.15
-25.21
-23.11
-19.62
-14.69
-8.51
-1.54
5.56
12.05
17.36
21.17
23.48
24.51
24.60
24.04
23.04
21.75
20.28
18.75
17.30
16.07
15.13
14.51
14.15
13.93
13.73
13.42
12.93
12.23
11.33
10.26
9.03
7.69
6.25
4.75
3.24
1.78
0.45
-0.68
-1.59
-2.30
-2.89
-3.48
-4.19
-5.11
-6.27
-7.64
-9.09
-10.47
-11.58
-12.20
-12.13
-11.17
-9.23
-6.35
-2.76
1.14
4.87
8.00
10.26
11.54
11.90
11.51
10.57
9.28
7.89
6.64
5.77
5.41
5.57
6.07
6.67
7.11
7.26
7.08
6.64
6.00
5.24
4.40
3.49
2.52
1.48
0.35
-0.92
-2.31
-3.77
-5.17
-6.35
-7.22
-7.79
-8.19
-8.63
-9.30
-10.31
-11.61
-13.07
-14.43
-15.46
-15.91
-15.57
-14.35
-12.24
-9.35
-5.92
-2.29
1.14
4.05
6.23
7.60
8.25
8.31
7.90
7.15
6.15
4.97
3.75
2.62
1.74
1.21
1.07
1.26
1.62
1.96
2.07
1.84
1.26
0.42
-0.53
-1.45
-2.38
-3.40
-4.65
-6.18
-7.89
-9.63
-11.25
-12.71
-14.09
-15.48
-16.94
-18.45
-19.91
-21.25
-22.45
-23.53
-24.40
-24.83
-24.40
-22.65
-19.31
-14.36
-8.15
-1.23
5.79
12.40
18.20
22.92
26.37
28.42
29.04
28.38
26.76
24.60
22.36
20.36
18.79
17.67
16.95
16.47
16.09
15.65
15.05
14.26
13.32
12.28
11.20
10.08
8.85
7.48
5.95
4.35
2.79
1.35
0.03
-1.23
-2.49
-3.76
-4.99
-6.07
-6.95
-7.69
-8.45
-9.41
-10.66
-12.17
-13.68
-14.84
-15.26
-14.71
-13.17
-10.85
-8.12
-5.34
-2.86
-0.85
0.58
1.40
1.58
1.08
-0.09
-1.85
-4.05
-6.43
-8.72
-10.64
-12.02
-12.76
-12.94
-12.70
-12.25
-11.77
-11.32
-10.85
-10.25
-9.36
-8.07
-6.33
-4.21
-1.80
0.72
3.15
5.29
7.01
8.24
9.01
9.41
9.48
9.22
8.58
7.49
5.98
4.18
2.31
0.68
-0.39
-0.64
0.12
1.87
4.41
7.42
10.46
13.14
15.11
16.19
16.32
15.55
14.06
12.14
10.12
8.30
6.92
6.05
5.64
5.51
5.47
5.36
5.08
4.64
4.06
3.41
2.75
2.12
1.48
0.81
0.04
-0.88
-1.94
-3.11
-4.32
-5.46
-6.45
-7.23
-7.82
-8.29
-8.76
-9.34
-10.11
-11.10
-12.31
-13.72
-15.24
-16.70
-17.78
-18.12
-17.40
-15.47
-12.50
-8.96
-5.43
-2.46
-0.38
0.72
0.94
0.43
-0.69
-2.33
-4.38
-6.61
-8.72
-10.37
-11.27
-11.27
-10.36
-8.63
-6.27
-3.52
-0.61
2.21
4.78
7.00
8.87
10.43
11.70
12.66
13.22
13.29
12.82
11.84
10.49
8.99
7.51
6.19
5.05
4.03
2.97
1.74
0.24
-1.49
-3.30
-4.91
-6.01
-6.28
-5.55
-3.81
-1.25
1.83
5.00
7.85
10.04
11.33
11.62
11.00
9.69
8.00
6.26
4.70
3.48
2.60
2.04
1.74
1.69
1.84
2.17
2.56
2.87
2.94
2.70
2.15
1.40
0.59
-0.19
-0.92
-1.66
-2.51
-3.52
-4.67
-5.83
-6.85
-7.64
-8.20
-8.65
-9.19
-9.96
-11.02
-12.30
-13.62
-14.70
-15.27
-15.06
-13.89
-11.73
-8.71
-5.14
-1.51
1.73
4.19
5.74
6.46
6.63
6.54
6.39
6.24
6.05
5.73
5.31
4.87
4.54
4.35
4.26
4.11
3.75
3.14
2.37
1.63
1.06
0.70
0.42
0.05
-0.55
-1.37
-2.29
-3.11
-3.70
-4.04
-4.22
-4.40
-4.68
-5.15
-5.84
-6.78
-7.95
-9.30
-10.69
-11.82
-12.33
-11.86
-10.22
-7.44
-3.80
0.21
4.03
7.24
9.56
10.92
11.43
11.29
10.69
9.78
8.66
7.43
6.19
5.04
4.12
3.54
3.35
3.50
3.82
4.07
4.05
3.67
2.96
2.08
1.19
0.35
-0.52
-1.52
-2.76
-4.22
-5.73
-7.07
-8.01
-8.50
-8.64
-8.71
-8.99
-9.69
-10.84
-12.27
-13.68
-14.70
-15.02
-14.43
-12.84
-10.32
-7.08
-3.46
0.14
3.32
5.77
7.35
8.06
8.07
7.57
6.81
6.00
5.31
4.83
4.64
4.71
4.97
5.29
5.56
5.72
5.75
5.67
5.54
5.42
5.31
5.18
4.98
4.60
3.96
3.03
1.84
0.47
-0.95
-2.30
-3.47
-4.45
-5.26
-5.96
-6.63
-7.33
-8.09
-8.94
-9.88
-10.81
-11.50
-11.65
-10.92
-9.14
-6.33
-2.82
0.91
4.33
7.07
8.93
9.91
10.11
9.69
8.80
7.63
6.37
5.26
4.47
4.09
4.06
4.25
4.47
4.57
4.50
4.30
4.02
3.72
3.42
3.09
2.70
2.22
1.65
1.04
0.43
-0.14
-0.65
-1.12
-1.59
-2.14
-2.86
-3.80
-4.97
-6.29
-7.64
-8.87
-9.87
-10.52
-10.70
-10.26
-9.06
-7.02
-4.24
-0.96
2.40
5.42
7.76
9.25
9.86
9.66
8.77
7.36
5.66
3.96
2.62
1.90
1.89
2.46
3.33
4.17
4.73
4.93
4.80
4.42
3.88
3.20
2.38
1.44
0.39
-0.70
-1.81
-2.88
-3.92
-4.91
-5.81
-6.58
-7.20
-7.71
-8.19
-8.74
-9.44
-10.27
-11.04
-11.41
-10.97
-9.42
-6.73
-3.18
0.68
4.25
7.09
9.01
10.08
10.47
10.32
9.74
8.80
7.64
6.52
5.69
5.37
5.57
6.15
6.84
7.39
7.61
7.45
6.95
6.19
5.30
4.35
3.42
2.52
1.67
0.85
0.04
-0.77
-1.59
-2.37
-3.06
-3.64
-4.15
-4.68
-5.37
-6.30
-7.45
-8.75
-10.03
-11.14
-11.93
-12.20
-11.70
-10.19
-7.54
-3.89
0.30
4.40
7.78
10.08
11.25
11.47
11.03
10.15
9.04
7.85
6.78
6.03
5.73
5.87
6.30
6.80
7.18
7.38
7.39
7.28
7.05
6.68
6.14
5.44
4.63
3.76
2.83
1.87
0.85
-0.20
-1.24
-2.20
-3.02
-3.66
-4.14
-4.51
-4.82
-5.18
-5.67
-6.38
-7.36
-8.58
-9.93
-11.20
-12.10
-12.35
-11.69
-10.01
-7.37
-3.99
-0.28
3.33
6.44
8.77
10.21
10.81
10.69
10.02
8.94
7.63
6.25
5.01
4.11
3.69
3.79
4.30
5.04
5.79
6.31
6.48
6.25
5.67
4.86
3.91
2.92
1.93
0.95
-0.01
-0.95
-1.81
-2.56
-3.17
-3.64
-4.03
-4.40
-4.80
-5.23
-5.69
-6.17
-6.77
-7.59
-8.71
-10.05
-11.37
-12.23
-12.18
-10.90
-8.36
-4.88
-0.99
2.71
5.75
7.90
9.15
9.64
9.50
8.86
7.82
6.56
5.29
4.25
3.65
3.53
3.83
4.37
4.98
5.50
5.81
5.82
5.48
4.83
3.94
2.97
2.09
1.37
0.79
0.23
-0.48
-1.40
-2.50
-3.68
-4.77
-5.68
-6.45
-7.20
-8.11
-9.30
-10.74
-12.21
-13.34
-13.76
-13.20
-11.63
-9.18
-6.16
-2.91
0.28
3.17
5.60
7.46
8.67
9.21
9.11
8.48
7.51
6.42
5.40
4.62
4.14
3.95
3.98
4.14
4.32
4.47
4.53
4.48
4.29
3.94
3.44
2.79
1.97
0.98
-0.14
-1.36
-2.55
-3.60
-4.42
-5.00
-5.42
-5.85
-6.46
-7.36
-8.50
-9.76
-10.92
-11.81
-12.32
-12.39
-11.95
-10.93
-9.25
-6.89
-3.99
-0.82
2.25
4.89
6.92
8.36
9.34
9.99
10.38
10.47
10.17
9.47
8.46
7.35
6.40
5.79
5.62
5.83
6.24
6.64
6.85
6.75
6.33
5.64
4.78
3.88
3.05
2.39
1.91
1.54
1.13
0.52
-0.37
-1.51
-2.73
-3.84
-4.70
-5.35
-5.94
-6.70
-7.79
-9.21
-10.81
-12.33
-13.48
-13.99
-13.68
-12.42
-10.20
-7.16
-3.61
0.06
3.38
6.00
7.71
8.49
8.42
7.69
6.47
5.00
3.48
2.15
1.19
0.71
0.70
1.07
1.62
2.20
2.66
2.89
2.87
2.60
2.14
1.59
1.02
0.51
0.06
-0.39
-0.93
-1.58
-2.33
-3.12
-3.88
-4.57
-5.18
-5.75
-6.31
-6.87
-7.42
-7.96
-8.46
-8.88
-9.12
-9.03
-8.43
-7.16
-5.17
-2.56
0.43
3.48
6.22
8.36
9.73
10.27
10.00
9.07
7.65
6.02
4.45
3.24
2.55
2.42
2.69
3.15
3.56
3.77
3.73
3.44
2.95
2.27
1.42
0.44
-0.64
-1.75
-2.84
-3.87
-4.80
-5.58
-6.14
-6.46
-6.57
-6.62
-6.81
-7.34
-8.31
-9.65
-11.14
-12.44
-13.17
-13.02
-11.80
-9.51
-6.32
-2.60
1.22
4.70
7.49
9.43
10.51
10.84
10.58
9.87
8.86
7.67
6.46
5.40
4.70
4.46
4.65
5.13
5.68
6.07
6.17
5.94
5.43
4.68
3.74
2.65
1.45
0.22
-0.96
-2.03
-2.96
-3.76
-4.44
-5.04
-5.59
-6.13
-6.71
-7.39
-8.23
-9.24
-10.38
-11.54
-12.50
-13.00
-12.74
-11.47
-9.09
-5.74
-1.80
2.20
5.69
8.29
9.80
10.30
10.02
9.27
8.31
7.31
6.40
5.63
5.06
4.74
4.71
4.93
5.30
5.68
5.92
5.95
5.74
5.34
4.78
4.08
3.19
2.10
0.87
-0.40
-1.54
-2.47
-3.15
-3.65
-4.07
-4.48
-4.96
-5.49
-6.08
-6.76
-7.59
-8.62
-9.84
-11.17
-12.33
-12.99
-12.79
-11.49
-9.06
-5.74
-1.98
1.72
4.92
7.38
9.03
9.93
10.19
9.93
9.28
8.35
7.32
6.33
5.53
4.99
4.69
4.60
4.60
4.64
4.68
4.72
4.75
4.73
4.60
4.28
3.76
3.10
2.38
1.68
0.98
0.22
-0.67
-1.69
-2.77
-3.75
-4.56
-5.20
-5.74
-6.28
-6.87
-7.57
-8.37
-9.31
-10.39
-11.53
-12.50
-12.96
-12.53
-10.97
-8.26
-4.69
-0.73
3.08
6.31
8.67
10.10
10.63
10.43
9.65
8.48
7.12
5.80
4.72
4.04
3.82
3.99
4.35
4.68
4.78
4.56
4.06
3.42
2.76
2.20
1.73
1.31
0.85
0.33
-0.30
-1.03
-1.85
-2.76
-3.72
-4.68
-5.55
-6.28
-6.83
-7.29
-7.77
-8.39
-9.19
-10.13
-11.02
-11.62
-11.65
-10.90
-9.28
-6.81
-3.69
-0.21
3.30
6.48
9.01
10.67
11.38
11.18
10.28
8.96
7.53
6.25
5.30
4.77
4.65
4.87
5.30
5.77
6.15
6.31
6.25
5.99
5.58
5.06
4.40
3.55
2.47
1.19
-0.18
-1.45
-2.51
-3.28
-3.82
-4.27
-4.76
-5.38
-6.13
-6.94
-7.73
-8.47
-9.23
-10.10
-11.12
-12.21
-13.04
-13.21
-12.32
-10.18
-6.95
-3.07
0.87
4.33
7.01
8.81
9.83
10.18
10.00
9.39
8.49
7.51
6.63
5.98
5.58
5.36
5.26
5.23
5.26
5.30
5.27
5.09
4.66
4.02
3.26
2.51
1.87
1.33
0.80
0.23
-0.43
-1.13
-1.81
-2.46
-3.11
-3.81
-4.62
-5.52
-6.43
-7.27
-7.97
-8.55
-9.07
-9.58
-10.04
-10.28
-10.03
-9.01
-7.10
-4.40
-1.23
1.98
4.84
7.11
8.73
9.72
10.14
10.01
9.33
8.17
6.68
5.15
3.90
3.16
3.01
3.37
3.99
4.61
5.01
5.08
4.82
4.31
3.62
2.84
2.00
1.14
0.31
-0.46
-1.11
-1.68
-2.21
-2.83
-3.60
-4.53
-5.54
-6.51
-7.33
-7.97
-8.51
-9.05
-9.69
-10.46
-11.26
-11.96
-12.37
-12.32
-11.67
-10.30
-8.15
-5.27
-1.83
1.84
5.36
8.32
10.42
11.48
11.50
10.63
9.13
7.33
5.56
4.11
3.14
2.70
2.73
3.09
3.64
4.17
4.52
4.55
4.23
3.59
2.77
1.92
1.13
0.41
-0.33
-1.17
-2.10
-3.05
-3.91
-4.58
-5.07
-5.52
-6.05
-6.82
-7.89
-9.24
-10.75
-12.17
-13.20
-13.48
-12.74
-10.84
-7.87
-4.14
-0.10
3.77
7.05
9.47
10.94
11.51
11.33
10.62
9.53
8.22
6.81
5.46
4.31
3.54
3.24
3.41
3.92
4.53
5.00
5.15
4.89
4.29
3.46
2.52
1.56
0.58
-0.49
-1.70
-3.02
-4.30
-5.31
-5.89
-6.04
-5.96
-5.94
-6.28
-7.13
-8.41
-9.88
-11.25
-12.19
-12.46
-11.85
-10.24
-7.63
-4.23
-0.43
3.24
6.34
8.56
9.87
10.41
10.38
9.94
9.18
8.17
7.06
6.04
5.34
5.07
5.21
5.56
5.87
5.98
5.81
5.40
4.83
4.17
3.43
2.63
1.75
0.80
-0.16
-1.07
-1.89
-2.59
-3.20
-3.74
-4.25
-4.75
-5.25
-5.78
-6.38
-7.15
-8.19
-9.54
-11.12
-12.68
-13.80
-14.05
-13.11
-10.91
-7.63
-3.72
0.27
3.83
6.57
8.35
9.26
9.49
9.28
8.82
8.18
7.36
6.37
5.28
4.30
3.66
3.52
3.88
4.57
5.28
5.75
5.81
5.48
4.84
4.03
3.13
2.16
1.10
-0.01
-1.13
-2.19
-3.12
-3.93
-4.64
-5.29
-5.92
-6.51
-7.04
-7.46
-7.72
-7.85
-7.97
-8.21
-8.71
-9.48
-10.33
-10.88
-10.70
-9.43
-6.99
-3.61
0.25
4.06
7.39
10.01
11.85
12.88
13.09
12.46
11.04
9.04
6.80
4.76
3.25
2.46
2.31
2.56
2.91
3.09
2.98
2.61
2.11
1.62
1.23
0.90
0.55
0.06
-0.66
-1.65
-2.82
-4.02
-5.05
-5.78
-6.17
-6.33
-6.47
-6.81
-7.51
-8.57
-9.86
-11.11
-12.00
-12.17
-11.32
-9.23
-5.85
-1.43
3.55
8.43
12.55
15.42
16.87
16.99
16.11
14.63
12.90
11.22
9.75
8.59
7.73
7.16
6.80
6.51
6.14
5.54
4.64
3.48
2.23
1.08
0.20
-0.36
-0.69
-0.97
-1.41
-2.12
-3.15
-4.44
-5.88
-7.32
-8.54
-9.38
-9.68
-9.45
-8.73
-7.77
-6.97
-6.70
-7.10
-7.96
-8.77
-8.93
-7.98
-5.69
-2.26
1.63
5.12
7.66
9.12
9.78
10.08
10.37
10.96
11.81
12.49
12.49
11.67
10.31
8.98
8.28
8.68
10.73
14.60
19.89
25.72
31.25
35.63
38.08
38.12
34.10
26.28
17.08
9.62
5.42
4.10
4.12
4.18
4.10
4.52
6.55
10.63
15.85
20.39
22.77
22.05
18.14
11.67
3.19
-5.58
-12.93
-17.95
-22.90
-28.67
-35.28
-42.42
-47.70
-49.96
-48.67
-44.31
-38.18
-31.87
-26.26
-21.73
-18.17
-15.12
-12.42
-9.96
-7.94
-6.74
-6.60
-7.11
-7.62
-7.49
-6.33
-4.40
-2.24
-0.51
0.27
-0.01
-0.90
-1.81
-2.28
-2.11
-1.51
-0.77
-0.19
-0.01
-0.38
-1.30
-2.77
-4.75
-7.07
-9.55
-11.89
-13.92
-15.65
-17.30
-19.18
-21.55
-24.38
-27.34
-29.83
-31.15
-30.77
-28.53
-24.72
-19.95
-15.04
-10.75
-7.61
-5.85
-5.40
-5.88
-6.70
-7.16
-6.57
-4.35
-0.17
5.95
13.68
22.47
31.69
40.77
49.25
56.75
62.97
67.64
70.58
71.79
71.47
69.99
67.77
65.13
62.21
58.95
55.16
50.61
45.14
38.65
31.25
23.19
14.89
6.85
-0.51
-7.01
-12.72
-17.81
-22.45
-26.59
-30.02
-32.47
-33.81
-34.15
-33.78
-33.00
-31.91
-30.36
-28.06
-24.82
-20.74
-16.29
-12.18
-9.15
-7.71
-8.06
-10.03
-13.16
-16.89
-20.63
-23.87
-26.25
-27.55
-27.74
-26.95
-25.44
-23.52
-21.48
-19.53
-17.83
-16.51
-15.64
-15.23
-15.18
-15.25
-15.09
-14.39
-12.98
-10.95
-8.66
-6.58
-5.12
-4.47
-4.51
-4.89
-5.14
-4.88
-3.85
-1.95
0.80
4.24
8.15
12.23
16.06
19.21
21.33
22.24
21.95
20.70
18.79
16.54
14.19
11.89
9.77
7.88
6.33
5.11
4.21
3.51
2.84
2.07
1.14
0.05
-1.12
-2.32
-3.57
-4.90
-6.38
-8.02
-9.76
-11.46
-12.97
-14.18
-15.12
-15.91
-16.77
-17.87
-19.23
-20.67
-21.78
-22.04
-20.97
-18.34
-14.24
-9.08
-3.49
1.86
6.40
9.75
11.82
12.68
12.57
11.77
10.56
9.22
7.96
6.95
6.27
5.92
5.79
5.71
5.55
5.21
4.74
4.20
3.68
3.17
2.61
1.90
0.99
-0.16
-1.56
-3.20
-5.02
-6.93
-8.75
-10.32
-11.56
-12.59
-13.59
-14.80
-16.27
-17.78
-18.86
-18.95
-17.60
-14.73
-10.61
-5.81
-1.01
3.23
6.58
8.98
10.52
11.36
11.61
11.34
10.58
9.48
8.26
7.18
6.48
6.20
6.23
6.34
6.32
6.06
5.60
5.08
4.60
4.18
3.74
3.09
2.08
0.68
-1.05
-2.91
-4.72
-6.30
-7.60
-8.65
-9.50
-10.25
-11.02
-11.87
-12.91
-14.20
-15.73
-17.32
-18.62
-19.16
-18.48
-16.39
-12.98
-8.67
-4.07
0.28
3.99
6.92
9.07
10.51
11.29
11.44
11.00
10.12
8.97
7.84
6.97
6.49
6.43
6.71
7.15
7.55
7.80
7.86
7.72
7.43
6.95
6.25
5.33
4.22
3.02
1.81
0.59
-0.65
-1.96
-3.32
-4.66
-5.87
-6.86
-7.66
-8.40
-9.27
-10.44
-11.96
-13.70
-15.34
-16.42
-16.46
-15.15
-12.40
-8.46
-3.80
1.06
5.63
9.59
12.74
14.93
16.07
16.14
15.27
13.76
12.03
10.52
9.53
9.21
9.50
10.23
11.14
11.96
12.42
12.34
11.66
10.49
9.07
7.69
6.55
5.71
5.04
4.33
3.40
2.16
0.65
-1.01
-2.71
-4.35
-5.88
-7.32
-8.64
-9.86
-11.01
-12.12
-13.24
-14.35
-15.33
-15.91
-15.74
-14.48
-11.94
-8.21
-3.61
1.30
5.93
9.76
12.51
14.20
15.02
15.30
15.32
15.21
14.97
14.53
13.88
13.11
12.42
12.00
11.91
12.06
12.21
12.09
11.52
10.49
9.13
7.65
6.23
4.98
3.87
2.77
1.59
0.26
-1.21
-2.70
-4.07
-5.19
-6.00
-6.52
-6.87
-7.19
-7.65
-8.35
-9.32
-10.50
-11.76
-12.92
-13.72
-13.90
-13.21
-11.47
-8.64
-4.91
-0.64
3.72
7.71
10.96
13.24
14.48
14.74
14.18
13.05
11.59
10.06
8.59
7.28
6.16
5.31
4.75
4.50
4.48
4.50
4.35
3.91
3.21
2.41
1.71
1.18
0.77
0.33
-0.25
-0.98
-1.83
-2.69
-3.50
-4.24
-4.90
-5.46
-5.95
-6.42
-7.01
-7.89
-9.16
-10.79
-12.57
-14.13
-15.06
-15.01
-13.79
-11.44
-8.17
-4.33
-0.31
3.53
6.90
9.61
11.51
12.55
12.72
12.13
11.01
9.62
8.26
7.12
6.29
5.78
5.53
5.44
5.40
5.35
5.21
4.96
4.58
4.08
3.47
2.72
1.80
0.68
-0.67
-2.22
-3.85
-5.41
-6.77
-7.83
-8.64
-9.36
-10.23
-11.47
-13.13
-15.05
-16.85
-18.08
-18.33
-17.39
-15.30
-12.29
-8.67
-4.78
-0.89
2.77
5.95
8.43
10.02
10.66
10.47
9.66
8.56
7.43
6.44
5.64
5.01
4.54
4.25
4.18
4.35
4.72
5.17
5.54
5.67
5.43
4.75
3.64
2.17
0.47
-1.30
-2.98
-4.45
-5.63
-6.46
-6.96
-7.22
-7.45
-7.91
-8.84
-10.33
-12.24
-14.16
-15.54
-15.83
-14.70
-12.13
-8.39
-3.96
0.63
4.88
8.43
11.13
12.96
13.98
14.28
13.92
12.97
11.57
9.94
8.40
7.25
6.66
6.61
6.93
7.37
7.69
7.79
7.67
7.37
6.94
6.31
5.38
4.04
2.35
0.47
-1.30
-2.73
-3.72
-4.35
-4.86
-5.43
-6.19
-7.14
-8.25
-9.50
-10.93
-12.56
-14.33
-16.00
-17.21
-17.58
-16.80
-14.78
-11.63
-7.66
-3.36
0.78
4.32
7.00
8.73
9.57
9.64
9.09
8.07
6.76
5.36
4.12
3.24
2.83
2.84
3.12
3.46
3.70
3.72
3.50
3.02
2.27
1.26
0.09
-1.02
-1.71
-1.61
-0.43
1.88
5.20
9.32
14.03
19.14
24.35
29.22
33.14
35.59
36.32
35.55
33.96
32.33
31.33
31.20
31.79
32.71
33.54
33.96
33.74
32.61
30.23
26.21
20.30
12.61
3.70
-5.47
-13.92
-20.95
-26.39
-30.53
-33.84
-36.59
-38.68
-39.69
-39.24
-37.31
-34.30
-30.93
-27.89
-25.53
-23.82
-22.49
-21.20
-19.79
-18.32
-16.97
-15.96
-15.36
-15.11
-15.03
-14.96
-14.77
-14.48
-14.18
-14.03
-14.20
-14.76
-15.69
-16.88
-18.13
-19.23
-19.95
-20.04
-19.27
-17.46
-14.58
-10.73
-6.22
-1.42
3.26
7.47
11.03
13.84
15.90
17.23
17.82
17.70
16.96
15.81
14.52
13.41
12.68
12.36
12.30
12.25
11.98
11.35
10.36
9.12
7.76
6.39
5.08
3.87
2.77
1.82
1.01
0.34
-0.26
-0.88
-1.59
-2.45
-3.47
-4.62
-5.88
-7.22
-8.64
-10.18
-11.83
-13.56
-15.23
-16.62
-17.41
-17.25
-15.89
-13.24
-9.50
-5.09
-0.57
3.54
6.89
9.31
10.78
11.37
11.16
10.27
8.94
7.46
6.21
5.51
5.52
6.18
7.23
8.33
9.12
9.39
9.05
8.19
6.98
5.69
4.54
3.67
3.10
2.70
2.29
1.73
0.97
0.03
-1.01
-2.06
-3.09
-4.07
-5.01
-5.91
-6.81
-7.77
-8.87
-10.13
-11.45
-12.57
-13.11
-12.70
-11.09
-8.29
-4.57
-0.43
3.59
7.00
9.48
10.92
11.43
11.20
10.47
9.45
8.33
7.26
6.35
5.71
5.38
5.37
5.57
5.87
6.12
6.17
5.96
5.45
4.68
3.73
2.74
1.81
1.00
0.28
-0.47
-1.39
-2.57
-3.97
-5.46
-6.85
-8.02
-8.93
-9.69
-10.48
-11.43
-12.60
-13.94
-15.26
-16.36
-16.98
-16.85
-15.70
-13.38
-9.93
-5.63
-0.98
3.44
7.18
10.05
12.09
13.53
14.51
15.10
15.17
14.64
13.52
12.00
10.44
9.13
8.22
7.67
7.30
6.94
6.59
6.33
6.34
6.74
7.50
8.38
9.10
9.35
8.95
7.90
6.31
4.38
2.28
0.15
-1.96
-4.00
-5.91
-7.61
-9.00
-10.06
-10.82
-11.35
-11.65
-11.62
-11.06
-9.75
-7.63
-4.83
-1.66
1.46
4.19
6.29
7.69
8.42
8.53
8.08
7.19
5.99
4.68
3.44
2.44
1.78
1.48
1.53
1.82
2.23
2.59
2.78
2.74
2.50
2.18
1.86
1.55
1.18
0.64
-0.16
-1.21
-2.39
-3.55
-4.53
-5.26
-5.77
-6.18
-6.65
-7.32
-8.29
-9.56
-10.99
-12.27
-13.00
-12.78
-11.34
-8.68
-5.09
-1.09
2.80
6.13
8.67
10.36
11.25
11.39
10.81
9.62
8.01
6.31
4.89
4.07
3.94
4.39
5.10
5.74
6.03
5.88
5.37
4.66
3.86
3.05
2.18
1.23
0.18
-0.92
-1.98
-2.90
-3.68
-4.37
-5.10
-5.99
-7.13
-8.49
-10.01
-11.52
-12.77
-13.49
-13.37
-12.16
-9.79
-6.42
-2.43
1.62
5.21
7.94
9.63
10.38
10.40
9.96
9.26
8.42
7.48
6.45
5.38
4.38
3.58
3.07
2.86
2.85
2.88
2.81
2.55
2.13
1.62
1.12
0.65
0.15
-0.48
-1.32
-2.36
-3.51
-4.64
-5.64
-6.50
-7.30
-8.20
-9.30
-10.62
-12.02
-13.19
-13.73
-13.26
-11.57
-8.69
-4.91
-0.73
3.29
6.70
9.21
10.78
11.50
11.55
11.10
10.30
9.28
8.16
7.09
6.21
5.65
5.46
5.63
6.05
6.52
6.84
6.86
6.50
5.80
4.88
3.88
2.89
1.96
1.07
0.15
-0.81
-1.81
-2.81
-3.75
-4.59
-5.35
-6.08
-6.87
-7.80
-8.92
-10.21
-11.58
-12.85
-13.74
-13.90
-13.03
-10.98
-7.84
-3.95
0.16
4.00
7.20
9.62
11.27
12.23
12.59
12.38
11.67
10.58
9.30
8.06
7.05
6.38
6.05
6.01
6.15
6.37
6.59
6.78
6.87
6.80
6.54
6.03
5.25
4.24
3.04
1.75
0.47
-0.74
-1.84
-2.84
-3.77
-4.63
-5.42
-6.08
-6.60
-7.00
-7.35
-7.78
-8.43
-9.38
-10.59
-11.95
-13.19
-14.00
-14.07
-13.11
-11.00
-7.84
-3.95
0.18
3.99
7.07
9.22
10.45
10.97
10.99
10.68
10.12
9.38
8.51
7.63
6.88
6.38
6.19
6.28
6.57
6.94
7.29
7.52
7.57
7.43
7.06
6.44
5.56
4.43
3.11
1.71
0.38
-0.77
-1.67
-2.35
-2.88
-3.35
-3.84
-4.42
-5.11
-5.91
-6.75
-7.56
-8.30
-8.94
-9.55
-10.21
-11.01
-11.91
-12.73
-13.18
-12.92
-11.66
-9.32
-6.02
-2.13
1.87
5.52
8.48
10.54
11.69
11.99
11.55
10.49
9.01
7.32
5.72
4.53
3.94
3.99
4.51
5.18
5.67
5.78
5.51
5.02
4.54
4.19
3.92
3.55
2.93
2.01
0.91
-0.16
-1.06
-1.80
-2.49
-3.27
-4.19
-5.16
-6.02
-6.64
-6.97
-7.12
-7.28
-7.64
-8.31
-9.31
-10.51
-11.66
-12.42
-12.45
-11.48
-9.41
-6.35
-2.64
1.25
4.83
7.69
9.59
10.52
10.60
10.09
9.27
8.37
7.53
6.79
6.12
5.51
4.97
4.53
4.27
4.22
4.37
4.67
4.99
5.22
5.23
5.00
4.51
3.83
3.04
2.23
1.39
0.50
-0.47
-1.48
-2.41
-3.10
-3.44
-3.40
-3.06
-2.62
-2.25
-2.13
-2.37
-3.06
-4.27
-5.97
-7.95
-9.84
-11.06
-11.04
-9.37
-6.04
-1.43
3.69
8.39
11.89
13.71
13.85
12.65
10.67
8.43
6.34
4.59
3.22
2.25
1.68
1.60
2.10
3.20
4.77
6.55
8.20
9.48
10.29
10.73
11.01
11.27
11.46
11.33
10.58
8.94
6.34
2.94
-1.00
-5.17
-9.33
-13.23
-16.65
-19.39
-21.31
-22.47
-23.06
-23.43
-23.87
-24.50
-25.18
-25.54
-25.13
-23.63
-20.94
-17.27
-12.98
-8.53
-4.32
-0.65
2.26
4.32
5.55
6.03
5.95
5.51
5.00
4.65
4.62
4.97
5.65
6.56
7.57
8.55
9.34
9.84
10.00
9.80
9.27
8.53
7.73
7.02
6.50
6.23
6.28
6.63
7.13
7.50
7.48
7.03
6.26
5.44
4.91
5.06
6.01
7.42
8.60
9.00
8.47
7.34
6.33
6.26
8.03
11.90
17.16
22.41
26.36
28.34
28.42
27.09
24.94
22.84
21.56
21.56
23.02
25.81
29.13
31.02
28.40
16.53
-6.17
-35.96
-65.60
-88.82
-102.98
-108.37
-106.41
-98.44
-85.35
-67.79
-47.47
-27.77
-12.89
-5.90
-6.97
-12.91
-18.35
-17.81
-7.68
11.88
36.81
61.00
78.79
86.96
85.14
74.78
58.08
37.33
14.94
-6.51
-23.95
-34.59
-37.45
-33.18
-24.57
-15.35
-8.30
-4.14
-1.37
3.01
11.52
24.80
41.12
56.91
68.23
72.10
67.46
55.14
37.83
18.55
-0.19
-16.83
-30.73
-41.67
-49.23
-52.29
-49.04
-36.63
-12.79
22.95
68.43
118.75
167.26
207.31
234.49
242.63
230.16
199.75
157.01
108.57
59.88
13.93
-29.05
-70.66
-113.15
-157.04
-200.86
-240.91
-271.90
-288.55
-287.60
-269.43
-238.43
-201.74
-166.17
-136.29
-113.55
-96.79
-83.97
-73.63
-65.49
-59.88
-56.75
-54.73
-51.71
-45.85
-36.44
-24.17
-10.82
1.65
11.76
19.04
24.40
29.40
35.56
43.46
52.34
60.27
65.01
65.10
60.59
53.13
45.12
38.57
34.31
31.88
29.97
27.36
23.49
18.75
14.11
10.63
8.94
9.09
10.56
12.43
13.62
13.19
10.70
6.48
1.69
-2.06
-3.29
-1.35
3.29
9.27
15.07
19.75
23.29
26.42
29.92
34.00
38.09
41.10
42.08
40.77
37.68
33.89
30.44
27.93
26.36
25.23
23.86
21.69
18.43
14.09
8.95
3.45
-1.88
-6.51
-10.02
-12.21
-13.12
-12.98
-12.13
-10.88
-9.44
-7.96
-6.59
-5.50
-4.89
-4.87
-5.38
-6.09
-6.51
-6.12
-4.60
-2.00
1.24
4.45
7.01
8.54
9.08
8.86
8.20
7.20
5.79
3.77
1.04
-2.25
-5.75
-9.02
-11.77
-13.95
-15.77
-17.56
-19.60
-22.01
-24.71
-27.57
-30.36
-32.83
-34.70
-35.61
-35.22
-33.26
-29.68
-24.76
-19.06
-13.25
-7.95
-3.58
-0.28
1.98
3.32
3.85
3.67
2.97
2.03
1.19
0.77
0.90
1.51
2.34
3.07
3.49
3.57
3.44
3.25
3.06
2.78
2.20
1.16
-0.37
-2.21
-4.11
-5.79
-7.13
-8.18
-9.11
-10.14
-11.45
-13.12
-15.08
-17.11
-18.85
-19.78
-19.39
-17.31
-13.47
-8.23
-2.19
3.87
9.28
13.59
16.66
18.50
19.24
19.07
18.16
16.79
15.28
14.00
13.24
13.13
13.56
14.29
15.00
15.45
15.50
15.15
14.46
13.47
12.17
10.53
8.56
6.28
3.79
1.25
-1.16
-3.30
-5.12
-6.74
-8.42
-10.44
-12.96
-15.87
-18.71
-20.78
-21.35
-19.90
-16.30
-10.88
-4.29
2.62
9.05
14.39
18.29
20.65
21.61
21.43
20.43
18.92
17.21
15.58
14.25
13.36
12.95
12.95
13.20
13.52
13.70
13.58
13.03
12.01
10.53
8.69
6.65
4.56
2.51
0.53
-1.45
-3.51
-5.70
-8.05
-10.57
-13.22
-15.90
-18.33
-20.08
-20.61
-19.45
-16.36
-11.46
-5.25
1.51
8.05
13.69
18.03
20.87
22.24
22.27
21.25
19.51
17.47
15.53
14.04
13.19
12.99
13.29
13.84
14.35
14.60
14.43
13.83
12.82
11.51
9.98
8.30
6.51
4.59
2.50
0.23
-2.18
-4.67
-7.19
-9.73
-12.36
-15.07
-17.72
-19.97
-21.28
-21.11
-19.08
-15.19
-9.76
-3.44
3.04
9.00
13.97
17.70
20.14
21.37
21.59
21.00
19.82
18.31
16.74
15.39
14.56
14.39
14.83
15.65
16.42
16.75
16.35
15.23
13.63
11.88
10.26
8.83
7.45
5.90
4.00
1.73
-0.76
-3.26
-5.61
-7.72
-9.61
-11.34
-13.01
-14.73
-16.63
-18.78
-21.17
-23.57
-25.52
-26.42
-25.70
-23.03
-18.44
-12.35
-5.47
1.38
7.50
12.44
16.04
18.38
19.66
20.07
19.79
19.01
17.96
16.96
16.29
16.16
16.56
17.30
18.05
18.53
18.59
18.24
17.60
16.83
15.99
15.02
13.81
12.25
10.35
8.18
5.94
3.81
1.95
0.38
-0.94
-2.18
-3.50
-4.99
-6.69
-8.50
-10.27
-11.84
-13.18
-14.37
-15.57
-17.00
-18.82
-21.03
-23.52
-25.97
-27.94
-28.90
-28.33
-25.88
-21.50
-15.55
-8.69
-1.79
4.36
9.27
12.82
15.19
16.70
17.57
17.92
17.76
17.14
16.31
15.60
15.32
15.56
16.15
16.78
17.14
17.06
16.62
16.03
15.46
14.91
14.19
13.06
11.40
9.34
7.15
5.17
3.75
2.98
2.62
2.25
1.49
0.24
-1.25
-2.61
-3.46
-3.45
-2.68
-1.78
-1.59
-2.81
-5.35
-8.62
-11.71
-13.66
-13.31
-10.14
-4.63
2.01
8.32
13.58
17.54
20.29
22.40
25.46
30.77
38.49
47.41
55.23
60.14
60.64
56.18
47.81
38.95
33.24
32.66
36.84
43.27
49.63
53.85
54.78
46.03
26.23
0.23
-24.16
-39.09
-46.74
-49.84
-50.03
-48.97
-47.51
-45.84
-44.58
-44.46
-45.40
-46.39
-44.94
-39.43
-30.34
-19.91
-10.28
-2.85
1.62
2.95
1.50
-1.28
-4.09
-6.32
-7.79
-8.14
-7.28
-5.73
-4.67
-5.03
-7.49
-12.53
-20.28
-30.20
-40.77
-50.01
-56.13
-57.96
-55.32
-48.85
-39.93
-30.27
-21.35
-13.95
-8.14
-3.55
0.39
4.19
8.19
12.44
16.64
20.28
22.75
23.51
22.21
18.80
13.55
7.01
0.00
-6.43
-11.22
-13.61
-13.34
-10.89
-7.29
-3.77
-1.37
-0.63
-1.41
-3.04
-4.54
-4.89
-3.31
0.44
5.91
11.96
17.05
19.68
18.95
14.86
8.30
0.54
-7.29
-14.61
-21.44
-28.14
-35.10
-42.39
-49.74
-56.58
-62.34
-66.61
-69.20
-70.15
-69.64
-67.92
-65.26
-61.99
-58.42
-54.69
-50.79
-46.36
-40.78
-33.45
-24.23
-13.59
-2.74
6.87
14.14
18.65
20.87
22.01
23.44
26.13
30.36
35.58
40.81
45.12
47.79
48.53
47.65
45.68
43.12
40.33
37.26
33.77
30.78
28.89
28.08
27.91
27.93
26.99
25.13
22.42
18.96
14.86
10.89
7.36
4.41
2.06
0.21
-1.25
-2.49
-3.64
-4.68
-5.70
-6.85
-8.20
-9.72
-11.35
-12.92
-14.34
-15.56
-16.55
-17.34
-18.01
-18.50
-18.71
-18.61
-18.27
-17.99
-18.09
-18.73
-19.81
-20.95
-21.55
-21.00
-18.92
-15.26
-10.33
-4.69
1.06
6.39
10.92
14.42
16.81
18.06
18.23
17.41
15.78
13.64
11.39
9.41
8.02
7.29
7.08
7.14
7.23
7.19
7.03
6.81
6.56
6.20
5.60
4.63
3.26
1.60
-0.18
-1.90
-3.52
-5.05
-6.56
-8.09
-9.61
-11.09
-12.51
-13.94
-15.50
-17.23
-19.03
-20.59
-21.43
-21.07
-19.18
-15.72
-10.91
-5.25
0.65
6.18
10.85
14.33
16.51
17.43
17.29
16.32
14.84
13.12
11.48
10.15
9.30
8.99
9.13
9.53
9.94
10.14
9.99
9.49
8.71
7.80
6.88
5.98
5.06
3.99
2.67
1.05
-0.79
-2.66
-4.35
-5.74
-6.83
-7.74
-8.70
-9.89
-11.42
-13.29
-15.38
-17.46
-19.27
-20.43
-20.60
-19.44
-16.79
-12.74
-7.64
-2.06
3.34
8.03
11.69
14.21
15.66
16.17
15.90
15.00
13.69
12.23
10.94
10.06
9.74
9.95
10.52
11.23
11.85
12.24
12.34
12.13
11.60
10.76
9.55
8.02
6.24
4.38
2.61
1.04
-0.32
-1.60
-2.92
-4.36
-5.85
-7.24
-8.38
-9.21
-9.83
-10.40
-11.12
-12.17
-13.63
-15.48
-17.56
-19.51
-20.81
-20.88
-19.30
-15.91
-11.04
-5.32
0.44
5.55
9.56
12.36
14.04
14.81
14.88
14.43
13.63
12.63
11.58
10.60
9.78
9.16
8.76
8.57
8.58
8.73
8.96
9.18
9.26
9.10
8.55
7.55
6.09
4.28
2.31
0.44
-1.11
-2.24
-3.02
-3.61
-4.22
-4.98
-5.90
-6.95
-8.05
-9.22
-10.50
-11.97
-13.66
-15.45
-17.07
-18.15
-18.32
-17.27
-14.93
-11.42
-7.07
-2.32
2.36
6.58
10.05
12.59
14.12
14.63
14.24
13.12
11.57
9.88
8.36
7.24
6.68
6.70
7.20
7.97
8.73
9.24
9.33
8.98
8.24
7.25
6.14
4.97
3.78
2.59
1.41
0.26
-0.85
-1.92
-2.99
-4.07
-5.18
-6.30
-7.44
-8.61
-9.81
-11.07
-12.41
-13.82
-15.30
-16.73
-17.87
-18.37
-17.79
-15.83
-12.43
-7.88
-2.72
2.38
6.88
10.45
13.00
14.57
15.22
15.01
14.05
12.57
10.92
9.45
8.46
8.03
8.09
8.41
8.76
9.00
9.09
9.06
8.99
8.88
8.68
8.29
7.61
6.63
5.40
4.05
2.73
1.54
0.44
-0.61
-1.74
-2.97
-4.29
-5.58
-6.70
-7.57
-8.19
-8.67
-9.17
-9.87
-10.88
-12.23
-13.80
-15.37
-16.61
-17.16
-16.71
-15.05
-12.13
-8.13
-3.39
1.60
6.28
10.16
12.93
14.50
14.97
14.58
13.65
12.42
11.09
9.82
8.75
8.02
7.72
7.83
8.21
8.65
8.88
8.80
8.44
7.95
7.49
7.08
6.63
5.95
4.95
3.66
2.28
1.04
0.13
-0.49
-0.96
-1.49
-2.21
-3.08
-3.99
-4.82
-5.51
-6.16
-6.89
-7.82
-8.97
-10.30
-11.71
-13.14
-14.57
-15.92
-17.03
-17.59
-17.16
-15.39
-12.16
-7.70
-2.56
2.48
6.73
9.75
11.42
11.90
11.46
10.42
9.02
7.50
6.04
4.84
4.08
3.86
4.14
4.77
5.54
6.19
6.57
6.60
6.33
5.85
5.23
4.51
3.71
2.82
1.86
0.88
-0.09
-1.01
-1.87
-2.66
-3.37
-3.99
-4.51
-4.96
-5.41
-5.90
-6.44
-6.96
-7.43
-7.86
-8.35
-9.06
-10.05
-11.14
-11.97
-12.05
-11.01
-8.76
-5.53
-1.78
1.97
5.31
7.96
9.79
10.73
10.78
10.03
8.64
6.92
5.20
3.76
2.76
2.23
2.11
2.28
2.63
3.04
3.45
3.81
4.11
4.33
4.41
4.28
3.88
3.20
2.34
1.43
0.61
-0.01
-0.45
-0.77
-1.09
-1.47
-1.93
-2.49
-3.13
-3.86
-4.67
-5.54
-6.44
-7.35
-8.31
-9.39
-10.65
-11.99
-13.14
-13.71
-13.27
-11.59
-8.69
-4.92
-0.78
3.20
6.58
9.13
10.76
11.47
11.35
10.57
9.34
7.92
6.55
5.43
4.67
4.29
4.23
4.43
4.78
5.19
5.59
5.90
6.08
6.11
5.97
5.69
5.30
4.85
4.34
3.77
3.11
2.35
1.48
0.56
-0.38
-1.29
-2.16
-2.98
-3.71
-4.32
-4.81
-5.24
-5.76
-6.54
-7.70
-9.24
-11.00
-12.71
-14.03
-14.64
-14.30
-12.91
-10.51
-7.29
-3.58
0.23
3.76
6.66
8.73
9.88
10.14
9.66
8.70
7.50
6.35
5.44
4.88
4.69
4.78
5.00
5.23
5.35
5.34
5.23
5.10
4.97
4.81
4.57
4.16
3.54
2.71
1.75
0.75
-0.18
-0.94
-1.47
-1.76
-1.90
-2.00
-2.24
-2.69
-3.40
-4.30
-5.33
-6.45
-7.67
-8.99
-10.32
-11.48
-12.21
-12.25
-11.44
-9.76
-7.32
-4.37
-1.19
1.93
4.75
7.04
8.59
9.26
9.00
7.87
6.09
4.04
2.12
0.70
0.00
0.07
0.76
1.81
2.92
3.84
4.41
4.56
4.32
3.82
3.17
2.49
1.80
1.06
0.19
-0.85
-2.04
-3.25
-4.33
-5.17
-5.79
-6.29
-6.83
-7.54
-8.47
-9.55
-10.65
-11.58
-12.14
-12.16
-11.48
-9.99
-7.71
-4.73
-1.31
2.21
5.47
8.14
10.01
11.01
11.20
10.73
9.83
8.71
7.57
6.57
5.85
5.43
5.31
5.40
5.54
5.59
5.41
4.97
4.32
3.63
3.04
2.65
2.41
2.17
1.73
0.94
-0.18
-1.48
-2.73
-3.78
-4.59
-5.32
-6.20
-7.44
-9.10
-11.08
-13.08
-14.67
-15.39
-14.90
-13.08
-10.07
-6.29
-2.25
1.55
4.76
7.21
8.90
9.90
10.31
10.23
9.76
9.00
8.13
7.27
6.57
6.07
5.80
5.74
5.83
5.97
6.08
6.10
6.03
5.88
5.66
5.32
4.72
3.75
2.37
0.67
-1.10
-2.70
-3.92
-4.76
-5.31
-5.73
-6.12
-6.54
-7.00
-7.54
-8.25
-9.23
-10.52
-12.03
-13.46
-14.43
-14.51
-13.37
-10.94
-7.41
-3.21
1.05
4.82
7.72
9.62
10.60
10.83
10.51
9.83
8.95
8.07
7.36
6.96
6.87
7.02
7.29
7.52
7.65
7.62
7.45
7.12
6.67
6.13
5.55
4.93
4.27
3.48
2.53
1.45
0.35
-0.61
-1.33
-1.82
-2.21
-2.66
-3.26
-4.02
-4.85
-5.68
-6.50
-7.40
-8.49
-9.80
-11.29
-12.76
-13.91
-14.41
-14.00
-12.54
-10.09
-6.86
-3.21
0.51
3.95
6.82
8.95
10.26
10.77
10.58
9.90
8.93
7.88
6.91
6.14
5.65
5.51
5.71
6.18
6.75
7.19
7.31
7.04
6.43
5.63
4.80
4.05
3.39
2.78
2.18
1.57
0.94
0.25
-0.52
-1.40
-2.33
-3.20
-3.89
-4.33
-4.58
-4.83
-5.26
-5.99
-7.02
-8.23
-9.47
-10.65
-11.73
-12.63
-13.21
-13.16
-12.17
-10.01
-6.75
-2.73
1.45
5.22
8.12
10.00
10.91
11.05
10.67
9.97
9.10
8.18
7.34
6.68
6.30
6.21
6.37
6.65
6.89
6.96
6.79
6.40
5.88
5.30
4.72
4.07
3.26
2.24
1.08
-0.05
-0.94
-1.44
-1.60
-1.61
-1.71
-2.06
-2.67
-3.40
-4.04
-4.48
-4.73
-4.92
-5.25
-5.86
-6.81
-8.07
-9.53
-10.93
-11.95
-12.18
-11.25
-9.00
-5.55
-1.34
3.03
6.95
10.01
12.06
13.20
13.64
13.66
13.41
13.06
12.68
12.35
12.13
12.02
11.96
11.91
11.80
11.64
11.49
11.52
11.87
12.72
14.09
15.86
17.76
19.46
20.67
21.19
20.99
20.14
18.83
17.26
15.61
14.01
12.54
11.19
9.92
8.66
7.37
6.09
4.88
3.85
3.04
2.44
2.01
1.68
1.44
1.26
1.20
1.32
1.79
2.89
4.97
8.31
12.86
18.23
23.61
28.12
31.05
32.20
31.86
30.59
28.94
27.23
25.50
23.73
21.91
20.21
18.79
17.74
16.97
16.24
15.29
14.03
12.57
11.17
10.11
9.57
9.53
9.84
10.22
10.38
10.01
8.90
6.98
4.29
0.98
-2.83
-7.13
-12.01
-17.62
-23.96
-30.76
-37.38
-43.03
-47.13
-49.71
-51.48
-53.57
-56.98
-61.99
-68.00
-73.72
-77.77
-79.27
-78.12
-74.90
-70.48
-65.59
-60.58
-55.42
-49.96
-44.18
-38.24
-32.50
-27.23
-22.53
-18.20
-13.90
-9.35
-4.55
0.14
4.24
7.39
9.53
10.97
12.16
13.41
14.70
15.73
16.04
15.36
13.69
11.28
8.52
5.70
2.89
-0.02
-3.22
-6.80
-10.72
-14.78
-18.71
-22.18
-24.97
-26.95
-28.10
-28.52
-28.36
-27.80
-26.91
-25.63
-23.78
-21.15
-17.62
-13.21
-8.11
-2.66
2.78
7.84
12.18
15.53
17.73
18.77
18.83
18.26
17.45
16.82
16.60
16.92
17.72
18.84
20.06
21.13
21.84
22.09
21.83
21.07
19.87
18.35
16.68
15.11
13.89
13.15
12.89
12.97
13.16
13.30
13.37
13.49
13.83
14.50
15.43
16.43
17.21
17.46
16.95
15.53
13.18
10.04
6.38
2.60
-0.80
-3.38
-4.81
-4.94
-3.87
-1.96
0.25
2.21
3.49
3.97
3.72
2.97
1.91
0.61
-0.93
-2.73
-4.67
-6.51
-7.94
-8.73
-8.79
-8.24
-7.32
-6.30
-5.42
-4.88
-4.74
-4.98
-5.51
-6.19
-6.93
-7.73
-8.68
-9.93
-11.58
-13.62
-15.88
-18.09
-19.93
-21.13
-21.57
-21.27
-20.38
-19.11
-17.69
-16.38
-15.36
-14.66
-14.19
-13.60
-12.46
-10.37
-7.13
-2.88
1.92
6.65
10.76
13.91
15.99
17.02
17.04
16.03
14.03
11.19
7.90
4.68
2.02
0.23
-0.71
-1.03
-1.05
-1.02
-1.00
-0.96
-0.84
-0.64
-0.45
-0.42
-0.66
-1.17
-1.86
-2.48
-2.85
-2.86
-2.58
-2.18
-1.89
-1.82
-1.89
-1.88
-1.59
-1.01
-0.35
0.00
-0.27
-1.19
-2.46
-3.49
-3.71
-2.72
-0.47
2.91
7.12
11.87
16.83
21.62
25.84
29.09
31.14
32.00
31.88
31.08
29.80
28.10
25.90
23.18
20.12
17.11
14.56
12.75
11.66
11.01
10.41
9.54
8.24
6.43
4.06
1.07
-2.54
-6.60
-10.77
-14.56
-17.61
-19.82
-21.46
-22.98
-24.80
-26.99
-29.26
-31.10
-32.03
-31.91
-30.92
-29.53
-28.08
-26.63
-24.84
-22.05
-17.66
-11.35
-3.33
5.78
15.08
23.70
30.95
36.40
39.89
41.46
41.29
39.69
37.04
33.81
30.39
27.12
24.15
21.52
19.16
16.98
14.98
13.24
11.95
11.30
11.37
12.04
12.98
13.71
13.75
12.78
10.73
7.79
4.30
0.65
-2.87
-6.09
-8.96
-11.50
-13.79
-15.97
-18.22
-20.76
-23.76
-27.30
-31.26
-35.34
-39.14
-42.29
-44.53
-45.73
-45.87
-44.92
-42.82
-39.53
-35.10
-29.74
-23.87
-18.04
-12.75
-8.40
-5.16
-3.05
-1.93
-1.61
-1.86
-2.47
-3.18
-3.76
-3.99
-3.69
-2.79
-1.33
0.53
2.55
4.47
6.06
7.20
7.83
7.99
7.73
7.08
6.06
4.74
3.19
1.55
-0.09
-1.72
-3.37
-5.14
-7.04
-9.07
-11.16
-13.21
-15.06
-16.48
-17.16
-16.79
-15.22
-12.54
-9.10
-5.41
-1.93
1.08
3.50
5.30
6.36
6.55
5.79
4.19
2.19
0.37
-0.70
-0.76
0.14
1.62
3.20
4.46
5.17
5.27
4.88
4.13
3.13
1.91
0.48
-1.12
-2.79
-4.35
-5.69
-6.76
-7.68
-8.67
-9.96
-11.66
-13.72
-15.90
-17.82
-19.04
-19.14
-17.83
-14.98
-10.71
-5.43
0.23
5.60
10.08
13.32
15.24
16.02
15.92
15.18
14.04
12.65
11.20
9.86
8.78
8.06
7.69
7.56
7.55
7.56
7.52
7.39
7.12
6.68
6.03
5.14
4.02
2.66
1.06
-0.76
-2.73
-4.74
-6.68
-8.50
-10.27
-12.13
-14.16
-16.28
-18.10
-19.10
-18.75
-16.76
-13.23
-8.56
-3.37
1.73
6.28
9.98
12.69
14.40
15.19
15.23
14.75
13.98
13.12
12.31
11.58
10.95
10.40
9.94
9.53
9.17
8.83
8.46
8.02
7.44
6.62
5.48
3.99
2.17
0.15
-1.90
-3.82
-5.52
-7.03
-8.47
-9.98
-11.71
-13.65
-15.63
-17.33
-18.28
-18.04
-16.30
-13.01
-8.46
-3.22
2.04
6.69
10.35
12.91
14.51
15.34
15.59
15.33
14.62
13.57
12.38
11.33
10.61
10.27
10.21
10.21
10.06
9.67
9.04
8.23
7.26
6.12
4.77
3.21
1.49
-0.27
-2.00
-3.64
-5.22
-6.85
-8.64
-10.64
-12.84
-15.04
-16.91
-18.01
-17.95
-16.42
-13.40
-9.08
-3.92
1.51
6.63
10.95
14.15
16.09
16.83
16.61
15.76
14.63
13.45
12.34
11.33
10.39
9.56
8.88
8.42
8.17
8.02
7.84
7.53
7.01
6.28
5.32
4.07
2.49
0.63
-1.39
-3.39
-5.20
-6.83
-8.39
-10.07
-11.95
-13.96
-15.78
-16.98
-17.12
-15.89
-13.23
-9.33
-4.57
0.50
5.32
9.48
12.68
14.88
16.14
16.62
16.50
15.93
15.07
14.11
13.20
12.48
11.99
11.69
11.48
11.24
10.91
10.48
9.96
9.37
8.67
7.78
6.61
5.16
3.54
1.91
0.38
-1.03
-2.39
-3.85
-5.42
-7.06
-8.62
-9.96
-11.03
-11.89
-12.69
-13.61
-14.80
-16.28
-17.99
-19.69
-21.00
-21.42
-20.48
-17.93
-13.80
-8.49
-2.66
3.00
7.94
11.83
14.57
16.19
16.81
16.62
15.84
14.74
13.61
12.68
12.08
11.79
11.71
11.74
11.76
11.69
11.45
10.98
10.24
9.28
8.22
7.20
6.35
5.70
5.15
4.56
3.80
2.80
1.64
0.43
-0.71
-1.70
-2.53
-3.26
-3.96
-4.72
-5.58
-6.57
-7.64
-8.76
-9.85
-10.86
-11.74
-12.54
-13.29
-14.10
-15.09
-16.36
-17.95
-19.71
-21.31
-22.25
-22.01
-20.21
-16.76
-11.92
-6.25
-0.46
4.80
9.06
12.09
13.92
14.75
14.86
14.49
13.82
12.94
11.93
10.87
9.89
9.18
8.87
8.99
9.42
9.92
10.24
10.23
9.88
9.25
8.44
7.48
6.37
5.08
3.66
2.24
0.96
-0.08
-0.94
-1.76
-2.73
-3.90
-5.22
-6.51
-7.58
-8.39
-9.00
-9.66
-10.59
-11.95
-13.73
-15.72
-17.53
-18.68
-18.72
-17.33
-14.43
-10.29
-5.40
-0.39
4.17
7.86
10.51
12.10
12.77
12.68
12.07
11.18
10.25
9.44
8.82
8.37
8.05
7.82
7.70
7.73
7.88
8.08
8.17
8.00
7.48
6.65
5.60
4.43
3.20
1.93
0.64
-0.64
-1.84
-2.95
-3.99
-5.03
-6.18
-7.47
-8.81
-10.04
-10.99
-11.57
-11.88
-12.15
-12.73
-13.85
-15.57
-17.68
-19.76
-21.22
-21.56
-20.40
-17.67
-13.57
-8.53
-3.13
2.04
6.54
10.09
12.60
14.11
14.73
14.61
13.92
12.89
11.78
10.85
10.26
10.04
10.07
10.14
10.09
9.88
9.55
9.21
8.89
8.55
8.09
7.42
6.50
5.36
4.10
2.82
1.60
0.48
-0.53
-1.46
-2.38
-3.35
-4.42
-5.55
-6.66
-7.66
-8.47
-9.15
-9.84
-10.76
-12.07
-13.77
-15.67
-17.42
-18.58
-18.74
-17.66
-15.30
-11.86
-7.71
-3.32
0.89
4.58
7.55
9.76
11.22
11.99
12.12
11.67
10.72
9.44
8.11
6.99
6.31
6.14
6.39
6.89
7.43
7.85
8.05
7.99
7.63
6.94
5.90
4.58
3.10
1.64
0.34
-0.70
-1.50
-2.16
-2.81
-3.54
-4.39
-5.35
-6.33
-7.26
-8.07
-8.75
-9.31
-9.83
-10.40
-11.09
-11.95
-12.94
-13.96
-14.76
-15.00
-14.32
-12.44
-9.32
-5.21
-0.59
3.93
7.85
10.89
12.99
14.29
14.89
14.85
14.13
12.76
10.87
8.80
6.92
5.59
4.92
4.86
5.16
5.52
5.73
5.65
5.29
4.76
4.16
3.55
2.94
2.27
1.52
0.69
-0.18
-1.05
-1.94
-2.90
-4.02
-5.29
-6.61
-7.77
-8.61
-9.06
-9.25
-9.41
-9.83
-10.66
-11.86
-13.20
-14.33
-14.84
-14.39
-12.74
-9.87
-6.00
-1.56
2.91
6.84
9.82
11.63
12.27
11.94
10.94
9.59
8.18
6.89
5.88
5.21
4.85
4.71
4.67
4.64
4.58
4.47
4.33
4.09
3.69
3.06
2.16
1.07
-0.09
-1.18
-2.14
-2.98
-3.76
-4.47
-5.12
-5.64
-6.04
-6.40
-6.83
-7.44
-8.28
-9.26
-10.30
-11.31
-12.22
-12.99
-13.52
-13.64
-13.11
-11.71
-9.33
-6.04
-2.11
2.07
6.03
9.33
11.69
13.03
13.44
13.17
12.43
11.38
10.10
8.66
7.20
5.98
5.24
5.12
5.53
6.24
6.87
7.17
7.05
6.58
5.93
5.24
4.58
3.94
3.27
2.57
1.85
1.15
0.51
-0.12
-0.82
-1.67
-2.68
-3.77
-4.83
-5.73
-6.46
-7.14
-7.91
-8.90
-10.10
-11.38
-12.52
-13.29
-13.49
-12.91
-11.42
-8.94
-5.56
-1.57
2.56
6.33
9.36
11.48
12.69
13.13
12.89
12.07
10.74
9.05
7.27
5.71
4.66
4.28
4.52
5.20
6.04
6.77
7.18
7.21
6.86
6.20
5.36
4.44
3.56
2.76
2.05
1.41
0.76
0.03
-0.83
-1.80
-2.86
-3.94
-4.97
-5.90
-6.70
-7.35
-7.85
-8.30
-8.84
-9.63
-10.73
-12.00
-13.08
-13.48
-12.73
-10.67
-7.45
-3.52
0.49
4.08
6.92
8.92
10.13
10.64
10.52
9.82
8.64
7.15
5.60
4.26
3.34
2.94
3.06
3.55
4.24
4.96
5.53
5.86
5.90
5.65
5.14
4.41
3.54
2.55
1.51
0.45
-0.59
-1.56
-2.46
-3.30
-4.12
-4.96
-5.85
-6.82
-7.89
-9.07
-10.34
-11.62
-12.73
-13.46
-13.53
-12.71
-10.86
-8.04
-4.45
-0.48
3.46
6.95
9.68
11.49
12.37
12.38
11.70
10.51
9.01
7.42
5.94
4.75
4.01
3.78
4.03
4.59
5.24
5.72
5.84
5.55
4.91
4.06
3.15
2.27
1.43
0.60
-0.26
-1.16
-2.06
-2.91
-3.70
-4.42
-5.12
-5.84
-6.60
-7.42
-8.30
-9.23
-10.23
-11.30
-12.35
-13.21
-13.59
-13.15
-11.65
-9.05
-5.56
-1.59
2.38
5.95
8.87
11.07
12.59
13.44
13.62
13.19
12.25
11.03
9.80
8.77
8.08
7.73
7.66
7.79
8.07
8.43
8.79
8.96
8.79
8.15
7.06
5.66
4.20
2.86
1.79
0.98
0.35
-0.23
-0.88
-1.66
-2.62
-3.75
-4.99
-6.30
-7.60
-8.80
-9.91
-10.95
-11.97
-13.02
-13.99
-14.67
-14.68
-13.66
-11.38
-7.92
-3.68
0.72
4.60
7.49
9.23
9.98
10.06
9.75
9.21
8.42
7.37
6.17
5.08
4.41
4.39
4.97
5.86
6.64
6.97
6.73
6.06
5.25
4.56
4.09
3.77
3.40
2.80
1.88
0.66
-0.75
-2.18
-3.50
-4.60
-5.41
-5.96
-6.35
-6.72
-7.24
-8.01
-9.04
-10.26
-11.50
-12.55
-13.13
-12.95
-11.77
-9.50
-6.27
-2.45
1.43
4.84
7.46
9.21
10.25
10.76
10.87
10.59
9.85
8.66
7.16
5.66
4.47
3.84
3.83
4.27
4.89
5.41
5.62
5.44
4.90
4.10
3.13
2.08
1.00
-0.04
-0.99
-1.82
-2.51
-3.13
-3.75
-4.47
-5.28
-6.15
-6.98
-7.71
-8.37
-9.06
-9.92
-11.04
-12.39
-13.81
-15.03
-15.68
-15.44
-14.05
-11.41
-7.72
-3.38
1.03
4.97
8.05
10.14
11.32
11.79
11.71
11.19
10.33
9.26
8.18
7.29
6.73
6.50
6.49
6.56
6.61
6.64
6.68
6.69
6.58
6.16
5.33
4.11
2.72
1.49
0.63
0.19
-0.08
-0.50
-1.36
-2.72
-4.37
-5.96
-7.17
-7.85
-8.08
-8.05
-8.01
-8.16
-8.67
-9.65
-11.11
-12.92
-14.73
-16.07
-16.42
-15.43
-13.00
-9.37
-5.02
-0.51
3.63
7.01
9.46
10.96
11.68
11.85
11.69
11.33
10.81
10.15
9.39
8.65
8.11
7.92
8.09
8.49
8.89
9.06
8.93
8.53
8.00
7.47
6.94
6.31
5.47
4.33
2.97
1.56
0.32
-0.58
-1.09
-1.34
-1.54
-1.92
-2.60
-3.59
-4.76
-5.93
-6.93
-7.69
-8.24
-8.73
-9.28
-10.04
-11.02
-12.12
-13.14
-13.77
-13.73
-12.77
-10.78
-7.84
-4.16
-0.09
4.02
7.82
11.04
13.54
15.27
16.26
16.62
16.48
16.01
15.46
15.06
15.00
15.39
16.23
17.40
18.73
20.03
21.19
22.25
23.32
24.50
25.83
27.30
28.95
30.82
32.97
35.48
38.35
41.62
45.08
48.56
51.86
54.87
57.46
59.46
60.79
61.50
61.88
62.06
62.24
62.58
63.12
63.75
64.20
64.31
64.17
63.98
62.87
59.34
51.61
38.48
19.92
-2.81
-27.37
-51.05
-71.64
-89.22
-104.75
-119.05
-131.79
-141.79
-147.93
-149.98
-148.67
-145.07
-141.57
-139.65
-139.51
-140.44
-142.15
-145.95
-154.38
-169.86
-182.65
-183.42
-166.76
-135.07
-96.04
-57.36
-23.83
2.87
23.42
39.79
52.31
60.68
64.50
64.31
61.56
58.05
55.32
54.44
55.83
57.98
59.06
57.69
53.96
49.03
44.44
41.33
40.19
40.83
41.75
41.38
38.71
34.18
29.12
25.04
22.81
22.36
22.78
22.35
19.54
13.59
5.32
-3.89
-12.27
-18.79
-23.50
-27.23
-31.20
-36.53
-44.18
-54.39
-66.83
-80.03
-91.10
-95.86
-90.34
-72.67
-43.57
-9.97
20.39
41.46
51.11
51.27
46.27
40.27
35.37
31.44
27.19
22.15
16.95
12.92
11.10
11.46
12.95
14.11
13.62
11.06
7.27
3.58
1.37
1.43
3.79
7.77
12.54
16.93
20.21
22.38
23.85
25.21
27.03
29.60
32.88
36.48
39.78
42.17
43.34
43.30
42.38
41.17
40.28
40.19
41.20
43.51
47.19
51.92
56.59
59.18
57.34
49.26
34.80
15.86
-4.12
-21.39
-33.38
-39.51
-40.95
-39.74
-37.60
-35.34
-32.93
-30.05
-26.58
-22.83
-19.32
-16.44
-14.23
-12.44
-10.70
-8.78
-6.78
-5.04
-4.04
-4.13
-5.32
-7.26
-9.34
-10.81
-11.19
-10.41
-8.87
-7.17
-5.87
-5.25
-5.20
-5.37
-5.37
-5.00
-4.34
-3.70
-3.41
-3.70
-4.59
-5.86
-7.23
-8.40
-9.21
-9.65
-9.82
-9.88
-10.01
-10.39
-11.17
-12.40
-13.95
-15.49
-16.51
-16.45
-14.91
-11.77
-7.32
-2.13
3.10
7.77
11.49
14.09
15.56
15.98
15.48
14.28
12.66
10.98
9.57
8.63
8.16
7.98
7.80
7.42
6.74
5.87
5.01
4.34
3.89
3.52
3.01
2.14
0.84
-0.83
-2.62
-4.29
-5.68
-6.72
-7.52
-8.24
-9.04
-10.05
-11.27
-12.60
-13.84
-14.73
-14.94
-14.21
-12.32
-9.23
-5.13
-0.40
4.42
8.76
12.23
14.62
15.97
16.43
16.19
15.42
14.28
12.96
11.72
10.82
10.43
10.54
10.97
11.45
11.68
11.49
10.81
9.67
8.19
6.52
4.76
2.95
1.01
-1.20
-3.77
-6.61
-9.49
-12.03
-13.92
-15.05
-15.52
-15.65
-15.79
-16.19
-16.97
-18.14
-19.57
-21.00
-22.07
-22.29
-21.19
-18.47
-14.17
-8.69
-2.70
3.05
7.95
11.63
14.02
15.23
15.47
14.98
13.99
12.76
11.55
10.60
10.11
10.14
10.62
11.38
12.14
12.65
12.72
12.31
11.50
10.41
9.14
7.68
5.95
3.89
1.50
-1.08
-3.62
-5.92
-7.87
-9.44
-10.73
-11.82
-12.78
-13.70
-14.67
-15.81
-17.22
-18.88
-20.60
-22.04
-22.78
-22.39
-20.59
-17.32
-12.74
-7.29
-1.56
3.85
8.45
12.03
14.65
16.54
17.90
18.81
19.19
18.94
18.08
16.87
15.72
15.09
15.24
16.10
17.38
18.69
19.69
20.26
20.41
20.30
20.09
19.87
19.62
19.32
18.98
18.63
18.30
17.87
17.29
16.34
14.65
11.65
6.82
-0.16
-9.32
-20.47
-33.27
-46.79
-59.77
-71.01
-79.79
-86.00
-90.09
-92.98
-95.66
-98.67
-101.34
-102.20
-99.98
-94.38
-86.01
-75.75
-64.15
-51.24
-36.72
-19.72
0.25
22.74
46.37
69.66
91.88
113.04
133.46
148.58
153.26
145.30
127.59
105.77
84.54
66.31
51.58
39.70
29.57
20.89
13.94
8.93
5.62
3.42
1.79
0.40
-0.86
-1.94
-2.28
-1.00
2.23
6.80
11.49
15.13
17.02
17.01
15.43
13.23
11.49
11.01
12.06
14.66
18.72
24.02
30.15
36.50
42.55
48.22
53.32
57.59
60.88
63.06
64.14
64.20
63.42
62.02
59.91
56.36
50.12
39.85
24.84
5.70
-15.62
-36.34
-53.94
-66.94
-75.21
-79.44
-80.40
-78.52
-73.99
-67.27
-59.60
-52.84
-48.79
-48.41
-51.38
-56.34
-61.69
-66.25
-69.44
-71.01
-70.68
-67.98
-62.55
-54.57
-44.98
-35.38
-27.43
-22.26
-20.14
-20.42
-21.92
-23.34
-23.62
-22.15
-18.81
-13.81
-7.49
-0.26
7.57
15.73
23.87
31.62
38.63
44.67
49.77
54.22
58.38
62.46
66.30
69.38
70.98
70.44
67.31
61.43
52.72
41.18
26.93
10.47
-7.08
-24.01
-38.48
-49.09
-55.22
-57.10
-55.36
-50.85
-44.51
-37.71
-32.36
-30.66
-34.11
-42.46
-53.08
-61.54
-63.18
-55.07
-37.23
-12.53
14.51
39.51
59.57
73.61
82.09
86.22
87.48
87.45
87.71
89.81
94.96
103.65
115.56
129.95
146.15
163.73
182.08
199.53
212.92
217.83
210.04
187.09
149.29
99.45
41.63
-20.11
-82.29
-141.66
-194.67
-237.44
-266.78
-281.42
-282.88
-275.06
-262.74
-249.94
-238.84
-229.96
-222.79
-216.55
-210.41
-203.31
-193.80
-180.24
-161.42
-137.20
-108.74
-78.24
-48.24
-20.79
3.13
23.71
42.09
59.57
76.98
94.14
109.91
122.61
130.87
134.34
133.99
131.88
130.36
131.04
134.29
139.03
143.38
145.40
143.81
138.30
129.45
118.36
106.48
95.33
86.27
80.15
76.75
74.47
70.61
62.42
48.48
29.53
8.36
-11.57
-27.95
-40.95
-53.26
-68.65
-89.80
-116.56
-145.62
-171.77
-190.02
-197.52
-194.25
-182.39
-164.77
-143.49
-119.33
-92.27
-62.40
-30.84
0.25
28.24
51.12
68.12
79.64
86.67
89.82
88.64
81.61
67.04
44.16
13.76
-21.89
-59.69
-96.50
-129.57
-156.54
-175.27
-183.84
-181.05
-166.95
-143.38
-113.66
-81.89
-51.82
-26.02
-5.62
9.47
19.97
26.84
31.06
33.46
34.65
34.99
34.71
34.08
33.39
32.98
33.25
34.46
36.73
39.94
43.81
47.98
52.07
55.78
58.84
60.92
61.60
60.40
57.00
51.50
44.51
37.00
29.93
23.88
18.88
14.47
10.14
5.71
1.63
-1.11
-1.33
1.78
8.27
17.28
27.32
36.81
44.67
50.65
55.32
59.69
64.74
71.07
78.77
87.51
96.49
104.31
109.01
108.38
100.80
86.21
66.55
45.41
26.67
12.87
4.24
-1.15
-6.19
-13.12
-22.63
-33.85
-45.14
-54.95
-62.29
-66.72
-68.12
-66.62
-62.81
-58.11
-55.03
-57.11
-68.32
-92.04
-129.77
-180.07
-238.11
-296.24
-345.56
-378.09
-388.67
-375.95
-342.12
-291.80
-230.80
-165.20
-100.77
-42.63
5.30
40.87
64.18
77.34
83.70
86.71
88.90
91.52
94.68
97.90
100.58
102.31
102.87
102.15
100.12
96.89
92.68
87.78
82.50
77.00
71.33
65.43
59.33
53.21
47.45
42.62
39.23
37.66
37.98
39.90
42.94
46.57
50.35
54.04
57.45
60.41
62.62
63.75
63.56
62.08
59.62
56.70
53.88
51.53
49.78
48.58
47.77
47.15
46.55
45.78
44.60
42.74
40.00
36.31
31.77
26.70
21.45
16.37
11.71
7.59
4.02
0.93
-1.81
-4.38
-6.91
-9.46
-11.92
-14.12
-15.83
-16.95
-17.57
-17.97
-18.52
-19.60
-21.39
-23.85
-26.69
-29.44
-31.53
-32.43
-31.76
-29.39
-25.45
-20.27
-14.32
-8.06
-1.89
3.82
8.81
12.90
16.02
18.25
19.80
20.89
21.65
22.11
22.24
22.12
21.90
21.83
22.10
22.70
23.41
23.95
24.09
23.78
23.17
22.47
21.84
21.32
20.86
20.43
20.01
19.64
19.30
18.89
18.21
17.05
15.27
12.91
10.19
7.49
5.22
3.59
2.58
1.84
0.87
-0.76
-3.22
-6.31
-9.56
-12.35
-14.18
-14.77
-14.14
-12.54
-10.33
-7.83
-5.29
-2.86
-0.60
1.38
3.01
4.17
4.84
5.07
5.00
4.80
4.59
4.41
4.19
3.87
3.45
3.04
2.81
2.90
3.35
4.03
4.72
5.18
5.23
4.85
4.14
3.31
2.51
1.81
1.20
0.54
-0.29
-1.35
-2.53
-3.67
-4.59
-5.20
-5.55
-5.82
-6.26
-7.04
-8.26
-9.88
-11.74
-13.57
-15.03
-15.74
-15.39
-13.81
-11.06
-7.45
-3.44
0.49
3.94
6.75
8.90
10.50
11.70
12.61
13.24
13.60
13.68
13.55
13.33
13.16
13.13
13.26
13.51
13.75
13.88
13.85
13.61
13.14
12.43
11.50
10.38
9.17
8.00
7.02
6.33
5.96
5.79
5.66
5.34
4.65
3.55
2.16
0.81
-0.18
-0.59
-0.44
0.05
0.59
0.94
1.10
1.39
2.30
4.30
7.64
12.17
17.44
22.99
28.38
33.49
38.48
43.70
49.37
55.43
61.47
66.95
71.51
74.90
77.24
78.94
80.52
82.21
83.74
84.37
83.14
79.10
70.72
56.43
35.22
7.54
-24.39
-56.88
-85.58
-106.80
-118.65
-122.45
-121.54
-119.39
-117.68
-115.92
-112.40
-105.52
-94.76
-80.86
-66.41
-54.22
-46.08
-42.39
-42.95
-48.28
-59.61
-78.14
-97.54
-109.79
-109.43
-97.35
-78.44
-57.32
-37.07
-19.26
-4.40
7.77
16.87
22.37
24.33
23.79
22.62
22.30
23.51
26.17
29.67
32.50
33.29
31.64
28.31
25.11
23.44
23.80
25.65
27.75
28.26
25.72
19.77
10.73
0.79
-8.12
-14.95
-19.77
-23.85
-29.63
-39.70
-54.40
-73.20
-91.74
-103.17
-101.02
-81.93
-47.59
-4.62
37.52
69.31
83.69
77.82
53.44
16.05
-25.93
-63.12
-87.19
-92.66
-79.07
-50.46
-16.17
15.07
37.67
50.27
54.47
53.23
49.00
43.17
36.54
30.12
25.48
23.90
25.64
29.38
32.91
34.06
31.56
25.79
18.53
12.48
9.75
11.04
15.41
20.89
25.25
27.27
26.63
24.37
22.40
22.51
25.74
31.93
39.82
47.20
51.42
50.03
41.73
27.13
8.82
-9.25
-23.19
-30.54
-31.16
-26.98
-20.96
-15.70
-12.62
-11.80
-12.42
-13.32
-13.45
-12.04
-8.71
-3.64
2.45
8.34
12.64
14.37
13.32
10.06
5.72
1.46
-1.88
-3.89
-4.51
-3.91
-2.28
0.07
2.59
4.57
5.31
4.27
1.37
-2.93
-7.77
-12.11
-15.18
-16.92
-17.79
-18.62
-20.25
-23.16
-27.32
-32.21
-37.06
-40.10
-40.36
-37.60
-32.32
-25.56
-18.42
-11.66
-5.54
-0.02
5.02
9.32
12.57
14.59
15.63
16.27
17.21
18.90
21.37
24.27
26.92
28.72
29.24
28.35
26.11
22.81
18.89
14.96
11.65
9.27
7.78
6.83
6.03
5.13
4.19
3.44
3.16
3.47
4.02
4.20
3.54
2.02
0.07
-1.81
-3.27
-4.18
-4.48
-4.44
-4.37
-4.29
-3.75
-1.95
1.73
7.53
15.22
24.14
32.73
39.03
41.62
40.48
36.88
32.57
29.00
27.02
26.94
27.79
27.78
24.94
17.76
5.17
-13.68
-39.03
-70.06
-99.79
-119.01
-121.59
-109.01
-87.96
-65.13
-44.32
-26.60
-11.62
1.61
12.93
21.34
26.08
27.65
27.65
27.88
29.52
32.69
37.16
41.63
44.54
44.90
42.97
39.93
36.96
34.56
31.66
27.89
22.25
13.92
2.90
-9.71
-22.28
-33.46
-41.00
-46.27
-50.57
-55.14
-60.59
-66.51
-71.72
-74.99
-75.64
-74.01
-71.56
-69.48
-68.91
-70.73
-75.44
-82.91
-91.70
-98.65
-99.39
-89.99
-68.58
-37.25
-1.72
30.72
54.21
66.52
69.41
66.91
62.74
58.96
55.58
51.74
47.07
42.30
38.70
37.20
37.59
38.62
38.86
37.21
33.67
29.12
24.89
22.06
21.00
21.25
21.85
21.83
20.67
18.54
16.09
14.05
12.89
12.57
12.66
12.66
12.21
11.36
10.47
9.95
10.03
10.55
11.19
11.46
11.16
10.34
9.32
8.60
8.70
10.05
12.76
16.38
19.77
21.27
19.19
12.58
1.84
-11.21
-23.80
-33.25
-37.89
-37.58
-33.62
-28.05
-22.64
-18.21
-14.62
-11.20
-7.52
-3.75
-0.70
0.88
0.80
-0.28
-1.14
-0.83
0.77
2.83
4.18
4.08
2.67
0.89
-0.23
-0.23
0.48
1.03
0.68
-0.65
-2.35
-3.61
-3.95
-3.52
-2.92
-2.76
-3.18
-3.79
-3.98
-3.28
-1.71
0.34
2.38
4.23
5.93
7.63
9.23
10.39
10.66
9.89
8.44
7.02
6.24
6.24
6.55
6.45
5.47
3.81
2.19
1.42
1.87
3.27
4.94
6.26
6.92
7.01
6.77
6.17
4.87
2.31
-1.79
-7.14
-12.92
-18.08
-21.81
-23.84
-24.47
-24.37
-24.24
-24.59
-25.66
-27.41
-29.67
-32.18
-34.65
-36.80
-38.25
-38.50
-36.93
-33.01
-26.52
-17.84
-7.91
2.02
10.77
17.64
22.49
25.57
27.17
27.37
26.19
23.75
20.61
17.75
16.17
16.45
18.34
20.87
22.85
23.43
22.59
21.03
19.76
19.53
20.50
22.24
24.12
25.57
26.32
26.29
25.39
23.45
20.35
16.30
11.97
8.45
6.70
6.89
7.99
7.93
4.36
-4.26
-17.76
-34.13
-50.16
-62.68
-69.64
-70.66
-66.79
-59.87
-51.78
-43.96
-37.35
-32.41
-29.22
-27.30
-25.79
-23.50
-19.29
-12.42
-2.80
9.02
22.09
35.22
47.17
56.73
62.89
65.00
63.00
57.53
49.76
41.12
32.82
25.60
19.60
14.62
10.33
6.59
3.48
1.22
-0.10
-0.67
-1.05
-1.96
-4.00
-7.35
-11.74
-16.52
-20.95
-24.53
-27.00
-28.42
-28.90
-28.54
-27.27
-25.01
-21.73
-17.53
-12.67
-7.49
-2.38
2.25
6.05
8.76
10.26
10.67
10.34
9.70
9.17
8.97
9.10
9.45
9.88
10.34
10.86
11.47
12.15
12.74
13.07
12.98
12.45
11.48
10.13
8.38
6.25
3.81
1.24
-1.19
-3.29
-4.98
-6.33
-7.57
-8.89
-10.39
-12.03
-13.65
-15.02
-15.91
-16.06
-15.19
-13.01
-9.41
-4.55
1.04
6.60
11.32
14.62
16.32
16.58
15.77
14.23
12.22
9.95
7.61
5.51
3.94
3.11
2.96
3.28
3.74
4.09
4.27
4.29
4.23
4.09
3.82
3.38
2.75
2.01
1.27
0.63
0.10
-0.35
-0.82
-1.34
-1.97
-2.70
-3.58
-4.70
-6.14
-7.95
-10.10
-12.43
-14.67
-16.49
-17.51
-17.43
-16.10
-13.53
-9.91
-5.60
-1.05
3.30
7.11
10.12
12.22
13.41
13.71
13.23
12.12
10.67
9.22
8.15
7.72
8.01
8.91
10.15
11.47
12.64
13.55
14.08
14.13
13.57
12.35
10.61
8.60
6.63
4.89
3.36
1.88
0.27
-1.52
-3.37
-5.05
-6.48
-7.74
-9.07
-10.69
-12.69
-14.94
-17.24
-19.39
-21.28
-22.79
-23.72
-23.73
-22.48
-19.75
-15.62
-10.46
-4.87
0.59
5.44
9.40
12.32
14.13
14.81
14.49
13.39
11.85
10.22
8.76
7.66
6.98
6.75
6.91
7.34
7.88
8.33
8.55
8.49
8.16
7.55
6.68
5.46
3.88
1.99
-0.04
-1.98
-3.65
-4.99
-6.04
-6.93
-7.75
-8.53
-9.26
-9.92
-10.56
-11.26
-12.08
-13.05
-14.00
-14.66
-14.71
-13.83
-11.84
-8.72
-4.66
-0.06
4.54
8.55
11.53
13.28
13.90
13.65
12.86
11.73
10.38
8.85
7.27
5.86
4.85
4.41
4.49
4.89
5.34
5.63
5.70
5.55
5.20
4.66
3.85
2.69
1.08
-0.97
-3.37
-5.90
-8.27
-10.20
-11.51
-12.23
-12.57
-12.89
-13.53
-14.71
-16.44
-18.48
-20.39
-21.64
-21.71
-20.22
-17.11
-12.64
-7.38
-2.01
2.82
6.71
9.54
11.37
12.37
12.72
12.55
12.00
11.22
10.34
9.50
8.76
8.15
7.70
7.42
7.30
7.32
7.37
7.28
6.92
6.22
5.22
4.04
2.79
1.53
0.25
-1.11
-2.55
-3.97
-5.28
-6.36
-7.21
-7.94
-8.77
-9.88
-11.32
-12.98
-14.61
-15.90
-16.55
-16.33
-15.05
-12.63
-9.10
-4.72
0.07
4.66
8.48
11.14
12.52
12.77
12.18
11.02
9.56
7.97
6.46
5.24
4.55
4.49
4.99
5.84
6.75
7.50
7.97
8.16
8.12
7.86
7.37
6.59
5.48
4.04
2.31
0.37
-1.68
-3.74
-5.68
-7.38
-8.74
-9.70
-10.32
-10.72
-11.08
-11.55
-12.21
-13.04
-13.92
-14.68
-15.05
-14.75
-13.51
-11.14
-7.60
-3.10
1.95
7.05
11.69
15.48
18.25
19.94
20.56
20.17
18.88
16.92
14.62
12.40
10.65
9.56
9.16
9.27
9.63
9.97
10.11
9.93
9.35
8.32
6.86
5.10
3.26
1.58
0.24
-0.70
-1.33
-1.85
-2.44
-3.22
-4.16
-5.18
-6.12
-6.89
-7.47
-7.93
-8.33
-8.72
-9.15
-9.66
-10.31
-11.05
-11.68
-11.87
-11.18
-9.26
-6.05
-1.81
2.89
7.38
11.10
13.75
15.24
15.67
15.20
14.02
12.41
10.66
9.11
7.97
7.32
7.09
7.09
7.15
7.13
6.98
6.69
6.26
5.70
5.01
4.19
3.29
2.32
1.27
0.09
-1.25
-2.77
-4.35
-5.83
-7.00
-7.77
-8.20
-8.48
-8.90
-9.68
-10.88
-12.42
-14.11
-15.78
-17.28
-18.51
-19.29
-19.35
-18.41
-16.31
-13.08
-9.04
-4.73
-0.74
2.48
4.73
6.05
6.65
6.75
6.51
6.01
5.32
4.53
3.85
3.49
3.63
4.31
5.38
6.56
7.58
8.21
8.43
8.26
7.82
7.16
6.27
5.09
3.59
1.77
-0.29
-2.41
-4.38
-6.02
-7.21
-7.97
-8.43
-8.83
-9.37
-10.18
-11.25
-12.48
-13.77
-15.00
-16.11
-17.00
-17.43
-17.06
-15.60
-12.96
-9.32
-5.17
-1.13
2.30
4.88
6.65
7.77
8.42
8.68
8.54
8.06
7.39
6.79
6.50
6.68
7.27
8.06
8.76
9.12
9.00
8.44
7.58
6.60
5.63
4.71
3.77
2.72
1.51
0.12
-1.33
-2.73
-3.97
-4.98
-5.72
-6.17
-6.37
-6.42
-6.46
-6.69
-7.27
-8.29
-9.77
-11.64
-13.79
-16.00
-17.95
-19.23
-19.40
-18.19
-15.58
-11.87
-7.59
-3.33
0.47
3.56
5.91
7.56
8.56
8.88
8.53
7.60
6.31
5.00
4.00
3.50
3.49
3.83
4.37
4.96
5.58
6.25
6.96
7.63
8.09
8.20
7.85
7.10
6.06
4.88
3.69
2.54
1.40
0.16
-1.27
-2.86
-4.52
-6.10
-7.48
-8.62
-9.63
-10.68
-11.99
-13.69
-15.66
-17.67
-19.34
-20.28
-20.21
-19.03
-16.90
-14.16
-11.27
-8.42
-5.67
-3.00
-0.49
1.64
3.03
3.38
2.55
0.67
-1.57
-3.40
-4.25
-3.92
-2.62
-0.79
1.19
3.11
5.02
7.71
12.10
19.00
28.82
41.48
56.55
73.59
92.42
109.56
121.79
126.45
122.44
110.78
94.02
75.06
56.21
38.82
23.33
10.12
-0.73
-9.20
-15.43
-19.74
-22.61
-24.52
-25.83
-26.77
-27.04
-26.38
-24.74
-22.44
-20.08
-18.32
-17.55
-17.76
-18.69
-19.75
-20.51
-20.72
-20.38
-19.59
-18.51
-17.21
-15.70
-14.04
-12.22
-10.34
-8.51
-6.84
-5.40
-4.20
-3.25
-2.51
-1.97
-1.64
-1.54
-1.73
-2.25
-3.18
-4.31
-5.80
-7.58
-9.49
-11.41
-13.25
-14.94
-16.47
-17.76
-18.75
-19.42
-19.71
-19.63
-19.15
-18.20
-16.68
-14.53
-11.78
-8.64
-5.47
-2.64
-0.46
0.89
1.37
1.08
0.20
-1.07
-2.52
-3.97
-5.26
-6.25
-6.88
-7.09
-6.89
-6.34
-5.56
-4.72
-4.01
-3.55
-3.42
-3.58
-3.96
-4.37
-4.67
-4.75
-4.63
-4.43
-4.33
-4.48
-4.96
-5.68
-6.47
-7.11
-7.45
-7.51
-7.43
-7.43
-7.65
-8.18
-8.95
-9.87
-10.78
-11.52
-11.91
-11.71
-10.70
-8.79
-6.01
-2.61
1.04
4.53
7.50
9.71
11.07
11.57
11.31
10.44
9.15
7.66
6.21
4.97
4.09
3.61
3.53
3.69
3.94
4.07
3.96
3.54
2.84
1.92
0.84
-0.35
-1.63
-2.99
-4.43
-5.93
-7.51
-9.17
-10.90
-12.66
-14.38
-16.02
-17.58
-19.15
-20.82
-22.62
-24.49
-26.26
-27.63
-28.32
-28.12
-26.88
-24.60
-21.38
-17.40
-12.91
-8.15
-3.38
1.18
5.32
8.90
11.88
14.29
16.24
17.86
19.28
20.60
21.87
23.07
24.11
24.87
25.25
25.14
24.52
23.44
22.00
20.36
18.67
17.03
15.49
14.06
12.72
11.43
10.17
8.93
7.71
6.52
5.36
4.19
2.94
1.52
-0.13
-1.99
-3.99
-5.98
-7.74
-9.02
-9.54
-9.09
-7.57
-5.04
-1.78
1.81
5.30
8.29
10.55
11.96
12.51
12.24
11.29
9.81
8.05
6.30
4.88
3.99
3.74
4.01
4.55
5.08
5.38
5.37
5.09
4.65
4.11
3.47
2.70
1.77
0.71
-0.41
-1.56
-2.74
-4.00
-5.33
-6.66
-7.84
-8.75
-9.35
-9.77
-10.20
-10.84
-11.78
-12.93
-14.02
-14.67
-14.48
-13.16
-10.67
-7.24
-3.35
0.44
3.66
6.02
7.50
8.20
8.27
7.88
7.13
6.13
5.02
3.96
3.09
2.45
2.04
1.76
1.53
1.28
0.99
0.67
0.34
0.02
-0.35
-0.83
-1.50
-2.41
-3.56
-4.87
-6.20
-7.47
-8.63
-9.78
-11.04
-12.51
-14.21
-15.97
-17.53
-18.57
-18.86
-18.27
-16.86
-14.81
-12.37
-9.82
-7.41
-5.36
-3.87
-3.07
-2.97
-3.52
-4.55
-5.80
-6.97
-7.73
-7.79
-6.95
-5.19
-2.64
0.44
3.76
7.06
10.17
12.93
15.23
16.89
17.76
17.74
16.88
15.37
13.49
11.51
9.60
7.84
6.17
4.51
2.78
0.91
-1.15
-3.36
-5.64
-7.75
-9.36
-10.07
-9.57
-7.74
-4.76
-1.05
2.82
6.30
9.02
10.84
11.85
12.20
12.06
11.52
10.64
9.51
8.26
7.10
6.20
5.60
5.23
4.90
4.47
3.92
3.31
2.75
2.28
1.83
1.26
0.43
-0.69
-2.04
-3.48
-4.86
-6.10
-7.18
-8.16
-9.12
-10.16
-11.37
-12.78
-14.41
-16.16
-17.84
-19.18
-19.82
-19.47
-18.02
-15.59
-12.52
-9.29
-6.35
-3.99
-2.32
-1.27
-0.75
-0.69
-1.06
-1.80
-2.81
-3.93
-4.97
-5.81
-6.36
-6.55
-6.32
-5.56
-4.19
-2.20
0.32
3.18
6.16
9.02
11.54
13.57
14.99
15.75
15.85
15.40
14.55
13.47
12.26
10.97
9.55
7.93
6.02
3.79
1.23
-1.60
-4.58
-7.48
-9.97
-11.70
-12.35
-11.74
-9.92
-7.13
-3.73
-0.11
3.43
6.63
9.31
11.34
12.63
13.18
13.11
12.60
11.91
11.24
10.70
10.35
10.13
10.00
9.95
9.97
10.02
10.03
9.87
9.45
8.71
7.67
6.43
5.12
3.83
2.57
1.31
0.02
-1.30
-2.53
-3.53
-4.20
-4.51
-4.60
-4.68
-4.95
-5.56
-6.53
-7.79
-9.22
-10.65
-11.91
-12.76
-12.92
-12.13
-10.28
-7.51
-4.18
-0.74
2.39
5.04
7.17
8.84
10.06
10.74
10.78
10.18
9.09
7.84
6.73
5.98
5.63
5.62
5.81
6.13
6.48
6.79
6.94
6.84
6.48
5.97
5.44
4.99
4.59
4.12
3.45
2.54
1.53
0.61
-0.10
-0.59
-1.03
-1.68
-2.72
-4.22
-6.06
-8.02
-9.78
-11.03
-11.49
-10.96
-9.36
-6.82
-3.65
-0.27
2.90
5.55
7.56
8.97
9.85
10.29
10.32
9.96
9.32
8.53
7.76
7.14
6.71
6.43
6.24
6.12
6.06
6.06
6.12
6.16
6.10
5.88
5.51
5.01
4.43
3.79
3.08
2.28
1.40
0.45
-0.52
-1.44
-2.28
-3.04
-3.77
-4.53
-5.42
-6.50
-7.79
-9.23
-10.70
-12.04
-13.00
-13.32
-12.75
-11.13
-8.50
-5.10
-1.37
2.22
5.27
7.56
9.09
9.97
10.35
10.32
9.95
9.32
8.55
7.84
7.39
7.29
7.51
7.90
8.24
8.34
8.14
7.70
7.15
6.63
6.17
5.75
5.26
4.61
3.75
2.74
1.65
0.56
-0.50
-1.54
-2.57
-3.61
-4.62
-5.55
-6.38
-7.11
-7.76
-8.35
-8.88
-9.43
-10.08
-10.96
-12.10
-13.36
-14.40
-14.79
-14.14
-12.29
-9.38
-5.81
-2.09
1.35
4.24
6.47
8.08
9.13
9.66
9.72
9.36
8.65
7.72
6.72
5.84
5.24
5.02
5.18
5.57
6.03
6.33
6.34
6.01
5.38
4.56
3.66
2.76
1.92
1.17
0.49
-0.18
-0.95
-1.89
-3.01
-4.20
-5.28
-6.06
-6.47
-6.60
-6.60
-6.69
-6.97
-7.47
-8.15
-8.95
-9.78
-10.51
-10.87
-10.58
-9.36
-7.18
-4.23
-0.93
2.24
4.89
6.86
8.12
8.80
8.97
8.68
7.98
6.93
5.72
4.56
3.67
3.18
3.09
3.28
3.61
3.92
4.10
4.12
3.97
3.68
3.26
2.76
2.22
1.68
1.14
0.61
0.03
-0.63
-1.42
-2.33
-3.31
-4.26
-5.11
-5.79
-6.37
-6.95
-7.66
-8.61
-9.83
-11.16
-12.31
-12.88
-12.53
-11.05
-8.51
-5.22
-1.63
1.78
4.65
6.79
8.12
8.68
8.53
7.78
6.61
5.27
4.02
3.06
2.48
2.25
2.26
2.39
2.57
2.79
3.00
3.16
3.21
3.08
2.76
2.24
1.52
0.58
-0.56
-1.85
-3.17
-4.36
-5.26
-5.81
-6.06
-6.17
-6.34
-6.73
-7.40
-8.30
-9.25
-10.01
-10.32
-10.00
-8.94
-7.17
-4.87
-2.25
0.41
2.88
4.92
6.38
7.17
7.30
6.88
6.09
5.15
4.25
3.51
2.96
2.61
2.40
2.33
2.36
2.48
2.63
2.77
2.81
2.73
2.56
2.32
2.04
1.67
1.12
0.32
-0.71
-1.87
-2.96
-3.87
-4.58
-5.20
-5.92
-6.88
-8.08
-9.37
-10.46
-11.06
-10.96
-10.05
-8.38
-6.11
-3.44
-0.64
2.07
4.49
6.46
7.87
8.66
8.83
8.45
7.65
6.55
5.34
4.20
3.25
2.54
2.08
1.77
1.53
1.34
1.22
1.21
1.35
1.56
1.72
1.68
1.35
0.76
-0.01
-0.84
-1.66
-2.44
-3.14
-3.74
-4.21
-4.57
-4.92
-5.39
-6.12
-7.09
-8.13
-8.94
-9.14
-8.45
-6.81
-4.38
-1.51
1.39
3.92
5.86
7.06
7.55
7.40
6.74
5.75
4.64
3.61
2.82
2.34
2.14
2.13
2.21
2.29
2.33
2.34
2.30
2.20
2.04
1.78
1.43
0.96
0.36
-0.40
-1.29
-2.25
-3.19
-4.02
-4.69
-5.19
-5.64
-6.17
-6.89
-7.78
-8.69
-9.35
-9.48
-8.94
-7.74
-6.02
-3.96
-1.70
0.63
2.94
5.04
6.68
7.61
7.71
7.03
5.81
4.37
3.00
1.88
1.10
0.63
0.42
0.43
0.63
1.03
1.55
2.10
2.51
2.63
2.34
1.66
0.72
-0.33
-1.31
-2.14
-2.84
-3.46
-4.05
-4.66
-5.31
-6.02
-6.80
-7.67
-8.52
-9.15
-9.29
-8.69
-7.22
-4.98
-2.27
0.51
2.96
4.82
6.04
6.66
6.83
6.64
6.16
5.41
4.49
3.50
2.61
1.96
1.63
1.63
1.90
2.32
2.79
3.17
3.36
3.28
2.93
2.33
1.52
0.54
-0.57
-1.79
-3.03
-4.18
-5.11
-5.74
-6.17
-6.54
-7.05
-7.82
-8.77
-9.67
-10.20
-10.06
-9.06
-7.19
-4.57
-1.49
1.70
4.63
6.96
8.48
9.12
8.97
8.23
7.15
5.98
4.91
4.07
3.53
3.29
3.35
3.58
3.86
4.03
3.97
3.70
3.32
2.98
2.76
2.65
2.48
2.09
1.38
0.37
-0.76
-1.83
-2.74
-3.49
-4.13
-4.72
-5.29
-5.85
-6.44
-7.08
-7.75
-8.31
-8.53
-8.13
-6.93
-4.93
-2.37
0.43
3.09
5.33
6.99
7.99
8.37
8.22
7.66
6.86
5.99
5.18
4.54
4.13
3.98
4.07
4.31
4.59
4.77
4.76
4.52
4.12
3.62
3.09
2.51
1.84
1.01
0.01
-1.07
-2.10
-2.94
-3.54
-3.92
-4.18
-4.45
-4.83
-5.38
-6.10
-6.97
-7.94
-8.91
-9.68
-10.02
-9.67
-8.44
-6.33
-3.55
-0.44
2.60
5.20
7.15
8.36
8.85
8.71
8.10
7.19
6.17
5.25
4.59
4.26
4.22
4.35
4.49
4.51
4.37
4.09
3.75
3.41
3.08
2.74
2.34
1.87
1.29
0.59
-0.23
-1.16
-2.14
-3.07
-3.82
-4.30
-4.55
-4.69
-4.92
-5.42
-6.26
-7.36
-8.53
-9.48
-9.94
-9.64
-8.45
-6.35
-3.54
-0.35
2.74
5.30
7.04
7.88
7.95
7.50
6.76
5.92
5.09
4.36
3.78
3.45
3.39
3.54
3.78
3.95
3.93
3.73
3.42
3.10
2.81
2.49
2.04
1.37
0.50
-0.47
-1.42
-2.22
-2.86
-3.35
-3.78
-4.22
-4.76
-5.48
-6.41
-7.52
-8.70
-9.73
-10.34
-10.31
-9.52
-7.99
-5.85
-3.32
-0.67
1.84
3.93
5.39
6.12
6.14
5.64
4.87
4.09
3.52
3.23
3.21
3.37
3.61
3.86
4.07
4.22
4.29
4.26
4.13
3.87
3.50
3.03
2.45
1.77
0.97
0.05
-0.97
-1.99
-2.89
-3.56
-3.96
-4.18
-4.42
-4.86
-5.65
-6.82
-8.21
-9.58
-10.61
-11.04
-10.65
-9.36
-7.23
-4.50
-1.51
1.37
3.85
5.74
6.99
7.61
7.69
7.30
6.58
5.66
4.75
3.98
3.46
3.19
3.16
3.29
3.54
3.83
4.06
4.12
3.94
3.52
2.92
2.26
1.60
0.96
0.34
-0.30
-0.93
-1.51
-1.97
-2.31
-2.57
-2.83
-3.12
-3.48
-3.93
-4.52
-5.31
-6.34
-7.52
-8.62
-9.30
-9.26
-8.31
-6.49
-4.06
-1.38
1.20
3.42
5.14
6.29
6.89
6.95
6.57
5.90
5.15
4.48
3.98
3.66
3.45
3.29
3.19
3.19
3.30
3.45
3.51
3.32
2.85
2.17
1.48
0.95
0.65
0.49
0.25
-0.26
-1.13
-2.29
-3.52
-4.61
-5.39
-5.81
-5.93
-5.89
-5.83
-5.90
-6.17
-6.64
-7.20
-7.70
-7.91
-7.66
-6.79
-5.30
-3.25
-0.85
1.63
3.89
5.64
6.71
7.06
6.81
6.13
5.25
4.36
3.55
2.92
2.48
2.28
2.29
2.47
2.74
3.05
3.34
3.61
3.85
4.00
3.97
3.64
2.95
1.93
0.73
-0.46
-1.46
-2.13
-2.50
-2.67
-2.77
-3.00
-3.47
-4.26
-5.34
-6.59
-7.77
-8.64
-8.94
-8.49
-7.27
-5.39
-3.07
-0.64
1.56
3.28
4.39
4.97
5.20
5.27
5.31
5.27
5.04
4.50
3.67
2.71
1.88
1.41
1.40
1.75
2.23
2.64
2.85
2.85
2.71
2.48
2.14
1.61
0.78
-0.35
-1.70
-3.07
-4.26
-5.12
-5.61
-5.80
-5.84
-5.89
-6.10
-6.55
-7.26
-8.17
-9.04
-9.55
-9.34
-8.14
-5.94
-3.00
0.21
3.14
5.41
6.85
7.53
7.60
7.23
6.55
5.64
4.69
3.93
3.60
3.87
4.70
5.85
6.93
7.61
7.65
7.05
5.96
4.65
3.35
2.26
1.44
0.87
0.39
-0.12
-0.78
-1.61
-2.50
-3.31
-3.91
-4.29
-4.55
-4.87
-5.39
-6.15
-7.08
-8.06
-8.98
-9.71
-10.14
-10.08
-9.33
-7.74
-5.36
-2.46
0.54
3.18
5.15
6.37
6.94
7.02
6.80
6.35
5.72
4.98
4.21
3.56
3.14
3.02
3.13
3.36
3.53
3.51
3.26
2.83
2.37
2.00
1.76
1.61
1.42
1.08
0.53
-0.22
-1.08
-1.94
-2.69
-3.23
-3.50
-3.51
-3.31
-3.02
-2.80
-2.76
-2.96
-3.39
-3.96
-4.46
-4.65
-4.19
-2.82
-0.42
2.89
6.75
10.63
14.05
16.70
18.54
19.74
20.54
21.11
21.53
21.86
22.15
22.53
23.14
24.11
25.46
27.17
29.22
31.61
34.37
37.49
40.83
44.09
46.85
48.69
49.39
48.94
47.53
45.42
42.81
39.72
36.02
31.48
25.88
19.10
11.12
2.02
-8.04
-18.88
-30.23
-41.77
-52.99
-63.25
-71.78
-77.87
-81.00
-81.09
-78.52
-74.04
-68.60
-63.03
-57.88
-53.36
-49.45
-46.02
-43.00
-40.33
-37.95
-35.74
-33.47
-30.91
-27.94
-24.58
-21.02
-17.56
-14.46
-11.90
-9.92
-8.42
-7.23
-6.19
-5.18
-4.17
-3.19
-2.35
-1.75
-1.44
-1.43
-1.68
-2.14
-2.76
-3.46
-4.18
-4.84
-5.41
-5.85
-6.10
-6.03
-5.43
-4.07
-1.80
1.30
4.94
8.65
11.92
14.42
16.01
16.76
16.84
16.38
15.50
14.29
12.90
11.56
10.50
9.89
9.76
9.96
10.21
10.23
9.86
9.10
8.11
7.15
6.38
5.82
5.34
4.73
3.83
2.66
1.36
0.16
-0.77
-1.34
-1.62
-1.74
-1.85
-2.09
-2.56
-3.27
-4.16
-5.08
-5.79
-6.05
-5.64
-4.48
-2.67
-0.42
1.95
4.16
6.00
7.41
8.41
9.04
9.29
9.08
8.36
7.13
5.58
4.02
2.80
2.12
2.02
2.31
2.76
3.14
3.33
3.27
2.98
2.46
1.69
0.73
-0.36
-1.45
-2.41
-3.17
-3.69
-3.98
-4.11
-4.15
-4.26
-4.58
-5.22
-6.15
-7.19
-8.01
-8.25
-7.63
-6.09
-3.81
-1.11
1.65
4.14
6.17
7.67
8.62
9.00
8.82
8.14
7.11
5.95
4.89
4.12
3.69
3.54
3.51
3.48
3.39
3.29
3.24
3.25
3.26
3.18
2.91
2.43
1.80
1.12
0.46
-0.18
-0.82
-1.51
-2.21
-2.92
-3.64
-4.39
-5.23
-6.15
-7.01
-7.56
-7.50
-6.60
-4.84
-2.40
0.37
3.07
5.34
6.99
7.95
8.27
8.07
7.47
6.60
5.58
4.53
3.60
2.96
2.71
2.86
3.31
3.87
4.33
4.53
4.39
3.98
3.38
2.70
2.01
1.28
0.45
-0.52
-1.62
-2.74
-3.72
-4.49
-5.05
-5.59
-6.35
-7.47
-8.90
-10.34
-11.34
-11.47
-10.51
-8.47
-5.63
-2.38
0.85
3.75
6.14
7.95
9.18
9.85
9.96
9.56
8.79
7.83
6.88
6.09
5.50
5.02
4.57
4.11
3.66
3.29
3.05
2.88
2.70
2.37
1.81
1.01
0.02
-1.07
-2.16
-3.17
-4.04
-4.77
-5.39
-5.98
-6.63
-7.39
-8.24
-9.07
-9.65
-9.72
-9.01
-7.38
-4.90
-1.85
1.33
4.23
6.52
8.09
8.95
9.23
9.02
8.45
7.59
6.54
5.39
4.28
3.33
2.63
2.25
2.17
2.31
2.57
2.82
2.99
3.06
3.03
2.90
2.64
2.18
1.51
0.63
-0.39
-1.44
-2.42
-3.27
-3.99
-4.63
-5.26
-5.99
-6.86
-7.80
-8.62
-9.03
-8.75
-7.62
-5.69
-3.22
-0.59
1.84
3.83
5.33
6.37
6.98
7.16
6.87
6.10
5.00
3.80
2.82
2.31
2.31
2.68
3.12
3.37
3.23
2.70
1.91
1.09
0.43
0.05
-0.07
-0.07
-0.17
-0.54
-1.25
-2.23
-3.32
-4.36
-5.25
-6.01
-6.71
-7.40
-8.06
-8.60
-8.95
-9.07
-8.90
-8.38
-7.39
-5.83
-3.68
-1.07
1.71
4.33
6.49
8.01
8.82
8.95
8.46
7.50
6.23
4.90
3.76
3.01
2.74
2.87
3.25
3.66
3.91
3.92
3.74
3.47
3.23
3.06
2.88
2.53
1.84
0.74
-0.70
-2.28
-3.76
-4.97
-5.87
-6.51
-7.00
-7.45
-7.97
-8.59
-9.30
-9.95
-10.31
-10.08
-8.98
-6.96
-4.18
-1.07
1.89
4.29
5.99
7.03
7.64
7.98
8.10
7.96
7.50
6.76
5.90
5.07
4.42
3.93
3.56
3.21
2.85
2.49
2.19
1.94
1.69
1.38
0.93
0.28
-0.58
-1.62
-2.77
-3.91
-4.88
-5.53
-5.85
-5.92
-5.98
-6.28
-6.99
-8.06
-9.26
-10.18
-10.40
-9.65
-7.88
-5.28
-2.23
0.86
3.65
5.92
7.59
8.64
9.09
8.94
8.27
7.19
5.95
4.81
4.01
3.65
3.65
3.83
3.95
3.89
3.62
3.24
2.91
2.71
2.62
2.52
2.22
1.57
0.56
-0.73
-2.10
-3.37
-4.46
-5.35
-6.09
-6.74
-7.28
-7.72
-8.09
-8.49
-9.01
-9.67
-10.31
-10.63
-10.31
-9.09
-6.99
-4.23
-1.16
1.83
4.44
6.47
7.84
8.54
8.60
8.10
7.15
5.93
4.67
3.60
2.91
2.72
3.01
3.66
4.45
5.15
5.55
5.57
5.23
4.62
3.83
2.96
2.06
1.20
0.47
-0.07
-0.42
-0.65
-0.93
-1.42
-2.18
-3.14
-4.12
-4.96
-5.55
-5.97
-6.36
-6.91
-7.68
-8.58
-9.34
-9.63
-9.19
-7.87
