1499339464.00
64.000000
-0.00
-0.00
-0.00
-0.00
-0.00
-0.00
-0.00
-0.00
-0.00
-0.00
0.00
0.01
0.01
-0.00
-0.03
-0.05
-0.05
0.00
0.13
0.36
0.66
1.01
1.37
1.72
2.06
2.40
2.79
3.24
3.80
4.42
5.06
5.66
6.20
6.68
7.15
7.68
8.31
9.14
10.09
11.04
11.88
12.56
13.14
13.76
14.65
15.96
17.91
20.32
22.90
25.38
27.58
29.57
31.68
34.32
37.81
42.54
48.15
54.10
59.83
64.97
69.58
74.14
79.34
85.71
93.76
103.00
112.62
121.73
129.77
136.75
143.30
150.75
157.77
166.64
177.95
191.79
206.97
220.57
228.25
225.36
208.53
176.87
132.76
80.05
23.07
-34.94
-92.44
-149.16
-205.23
-260.37
-313.74
-363.87
-409.83
-450.91
-486.50
-515.74
-537.23
-549.22
-549.96
-538.37
-514.21
-478.68
-433.87
-382.43
-326.99
-269.81
-212.63
-156.72
-103.10
-52.62
-6.23
35.20
71.03
100.97
125.13
144.00
158.26
168.62
175.73
180.01
181.80
181.30
178.79
174.56
168.95
162.34
155.09
147.50
139.79
132.09
124.46
116.87
109.27
101.61
93.87
86.15
78.61
71.47
64.89
58.91
53.42
48.16
42.86
37.36
31.70
26.16
21.12
16.90
13.59
10.96
8.55
5.86
2.57
-1.26
-5.21
-8.69
-11.19
-12.54
-12.97
-13.04
-13.39
-14.62
-17.11
-20.90
-25.54
-29.88
-32.22
-30.83
-24.56
-13.59
0.40
14.76
26.80
34.72
38.17
38.13
36.31
34.34
33.24
33.10
33.35
33.10
31.64
28.74
24.70
20.24
16.14
12.86
10.45
8.65
7.16
5.87
4.91
4.43
4.40
4.53
4.38
3.66
2.36
0.73
-0.78
-1.83
-2.32
-2.50
-2.74
-3.35
-4.32
-5.17
-5.15
-3.50
0.15
5.43
11.37
16.61
19.93
20.68
18.96
15.50
11.33
7.37
4.23
2.15
1.10
0.97
1.61
2.89
4.65
6.68
8.69
10.40
11.65
12.42
12.76
12.77
12.48
11.80
10.63
8.99
6.73
3.95
0.77
-2.64
-6.12
-9.42
-12.27
-14.40
-15.68
-16.24
-16.38
-16.52
-16.96
-17.66
-18.34
-18.60
-18.08
-16.76
-14.92
-13.02
-11.58
-10.92
-11.11
-11.91
-12.74
-12.87
-11.60
-8.49
-3.57
2.53
8.77
13.94
17.08
17.79
16.29
13.30
9.73
6.35
3.60
1.55
0.02
-1.21
-2.25
-3.05
-3.45
-3.32
-2.64
-1.57
-0.30
1.03
2.33
3.59
4.76
5.70
6.20
6.14
5.52
4.54
3.48
2.58
1.85
1.13
0.16
-1.14
-2.76
-4.49
-6.08
-7.40
-8.49
-9.58
-10.99
-12.92
-15.36
-18.09
-20.76
-23.00
-24.62
-25.59
-26.09
-26.46
-27.09
-28.39
-30.65
-33.80
-37.25
-39.90
-40.36
-37.42
-30.53
-20.07
-7.31
5.99
18.24
28.33
35.84
40.86
43.72
44.72
44.12
42.15
39.11
35.39
31.43
27.64
24.32
21.64
19.63
18.28
17.50
17.19
17.26
17.63
18.19
18.77
19.09
18.84
17.78
15.82
13.13
10.05
6.98
4.21
1.82
-0.24
-2.12
-3.95
-5.85
-7.91
-10.24
-12.87
-15.79
-18.82
-21.72
-24.28
-26.39
-28.17
-29.87
-31.76
-34.11
-37.01
-40.41
-44.02
-47.23
-49.14
-48.73
-45.12
-38.00
-27.79
-15.61
-2.97
8.70
18.39
25.70
30.60
33.35
34.20
33.37
31.08
27.69
23.69
19.63
16.04
13.29
11.55
10.77
10.77
11.32
12.21
13.26
14.34
15.25
15.77
15.66
14.76
13.07
10.81
8.30
5.86
3.67
1.66
-0.44
-2.90
-5.88
-9.25
-12.70
-15.80
-18.28
-20.13
-21.64
-23.34
-25.76
-29.24
-33.75
-38.84
-43.67
-47.15
-48.15
-45.82
-39.78
-30.33
-18.40
-5.38
7.24
18.19
26.66
32.37
35.49
36.40
35.61
33.55
30.64
27.22
23.65
20.22
17.18
14.70
12.89
11.77
11.38
11.69
12.60
13.91
15.32
16.47
17.01
16.70
15.44
13.37
10.77
7.99
5.33
2.91
0.62
-1.79
-4.58
-7.89
-11.62
-15.46
-19.03
-22.06
-24.53
-26.71
-29.01
-31.85
-35.45
-39.66
-43.95
-47.39
-48.86
-47.32
-42.12
-33.27
-21.57
-8.41
4.56
15.94
24.90
31.27
35.33
37.52
38.14
37.36
35.31
32.29
28.85
25.63
23.18
21.71
21.02
20.69
20.26
19.50
18.49
17.51
16.87
16.67
16.74
16.64
15.92
14.25
11.64
8.33
4.74
1.21
-2.12
-5.30
-8.57
-12.14
-16.17
-20.65
-25.43
-30.26
-34.86
-38.95
-42.45
-45.43
-48.20
-51.15
-54.70
-58.99
-63.82
-68.53
-72.05
-73.12
-70.55
-63.60
-52.26
-37.32
-20.22
-2.69
13.70
27.88
39.34
48.09
54.38
58.47
60.59
60.92
59.70
57.31
54.25
51.06
48.22
46.02
44.53
43.65
43.21
43.00
42.85
42.60
42.09
41.15
39.63
37.47
34.73
31.61
28.37
25.25
22.32
19.49
16.58
13.43
10.02
6.47
3.05
-0.05
-2.77
-5.26
-7.83
-10.72
-14.07
-17.77
-21.57
-25.08
-28.02
-30.23
-31.78
-32.96
-34.18
-35.82
-38.18
-41.20
-44.41
-46.91
-47.54
-45.18
-39.20
-29.73
-17.67
-4.52
8.09
18.84
27.03
32.54
35.66
36.82
36.34
34.43
31.34
27.43
23.17
19.14
15.79
13.42
12.08
11.66
11.92
12.67
13.71
14.91
16.14
17.23
17.98
18.16
17.60
16.20
14.00
11.22
8.17
5.16
2.41
-0.03
-2.26
-4.46
-6.83
-9.44
-12.23
-15.00
-17.50
-19.52
-20.98
-22.00
-22.84
-23.80
-25.14
-27.03
-29.52
-32.55
-35.90
-39.08
-41.37
-41.83
-39.62
-34.25
-25.87
-15.30
-3.84
7.12
16.45
23.55
28.37
31.19
32.40
32.34
31.18
29.06
26.15
22.79
19.43
16.54
14.45
13.25
12.85
13.01
13.54
14.32
15.30
16.42
17.48
18.20
18.27
17.50
15.89
13.64
11.06
8.42
5.85
3.38
0.94
-1.49
-3.86
-6.13
-8.30
-10.45
-12.72
-15.21
-17.85
-20.44
-22.68
-24.36
-25.46
-26.21
-26.94
-28.05
-29.83
-32.46
-35.89
-39.77
-43.37
-45.67
-45.53
-42.09
-35.09
-25.08
-13.25
-1.09
10.04
19.18
25.94
30.35
32.68
33.22
32.30
30.23
27.36
24.16
21.04
18.38
16.39
15.13
14.47
14.23
14.25
14.46
14.86
15.49
16.28
17.05
17.51
17.37
16.49
14.91
12.88
10.74
8.74
6.95
5.29
3.56
1.62
-0.56
-2.87
-5.13
-7.22
-9.12
-10.89
-12.62
-14.37
-16.14
-17.94
-19.77
-21.63
-23.51
-25.33
-26.98
-28.36
-29.47
-30.50
-31.78
-33.69
-36.39
-39.65
-42.72
-44.46
-43.68
-39.51
-31.77
-21.10
-8.81
3.51
14.44
23.06
29.03
32.52
33.94
33.70
32.18
29.65
26.41
22.84
19.38
16.45
14.33
13.12
12.71
12.89
13.49
14.35
15.43
16.61
17.76
18.64
19.04
18.80
17.91
16.46
14.68
12.80
11.02
9.42
7.92
6.35
4.48
2.18
-0.52
-3.35
-5.99
-8.15
-9.77
-11.05
-12.33
-13.93
-15.95
-18.31
-20.71
-22.86
-24.57
-25.77
-26.60
-27.31
-28.25
-29.79
-32.22
-35.52
-39.21
-42.37
-43.73
-42.15
-36.99
-28.39
-17.29
-5.07
6.79
17.13
25.27
31.01
34.45
35.82
35.44
33.62
30.77
27.32
23.72
20.39
17.61
15.55
14.27
13.72
13.79
14.36
15.26
16.35
17.51
18.61
19.46
19.81
19.40
18.09
15.93
13.28
10.60
8.31
6.54
5.10
3.62
1.75
-0.61
-3.24
-5.73
-7.80
-9.38
-10.73
-12.23
-14.18
-16.62
-19.30
-21.82
-23.87
-25.35
-26.37
-27.24
-28.24
-29.58
-31.35
-33.52
-35.87
-37.97
-39.10
-38.42
-35.19
-29.11
-20.47
-10.18
0.53
10.44
18.67
24.79
28.79
30.80
31.01
29.55
26.61
22.50
17.78
13.12
9.22
6.57
5.29
5.17
5.74
6.53
7.25
7.85
8.45
9.15
9.91
10.51
10.64
10.02
8.56
6.32
3.55
0.57
-2.28
-4.80
-6.90
-8.72
-10.49
-12.51
-14.91
-17.62
-20.34
-22.68
-24.36
-25.37
-25.98
-26.66
-27.87
-29.97
-32.99
-36.60
-40.07
-42.34
-42.25
-38.89
-31.95
-21.86
-9.76
2.85
14.55
24.30
31.64
36.52
39.19
39.96
39.16
37.09
34.11
30.59
26.89
23.32
20.15
17.52
15.53
14.20
13.52
13.45
13.90
14.70
15.64
16.44
16.82
16.57
15.59
13.96
11.89
9.62
7.37
5.25
3.22
1.15
-1.17
-3.92
-7.14
-10.72
-14.37
-17.76
-20.60
-22.83
-24.56
-26.06
-27.70
-29.82
-32.63
-36.08
-39.80
-42.97
-44.48
-43.20
-38.44
-30.27
-19.56
-7.71
3.78
13.83
21.90
27.90
31.95
34.16
34.58
33.31
30.65
27.14
23.44
20.15
17.68
16.14
15.42
15.31
15.61
16.16
16.94
17.89
18.93
19.84
20.39
20.32
19.47
17.86
15.63
13.00
10.17
7.24
4.29
1.31
-1.72
-4.81
-7.98
-11.20
-14.42
-17.49
-20.28
-22.65
-24.61
-26.30
-28.01
-30.11
-32.95
-36.68
-41.15
-45.76
-49.53
-51.23
-49.79
-44.60
-35.81
-24.31
-11.54
0.99
12.03
20.87
27.27
31.33
33.33
33.52
32.19
29.69
26.46
23.06
19.99
17.64
16.19
15.56
15.52
15.78
16.13
16.48
16.86
17.27
17.65
17.79
17.35
16.05
13.79
10.77
7.44
4.28
1.63
-0.51
-2.43
-4.60
-7.36
-10.78
-14.60
-18.33
-21.50
-23.83
-25.30
-26.26
-27.24
-28.82
-31.44
-35.14
-39.49
-43.57
-46.20
-46.23
-42.88
-35.99
-26.07
-14.23
-1.86
9.67
19.37
26.69
31.57
34.26
35.12
34.49
32.62
29.77
26.31
22.70
19.44
16.93
15.33
14.55
14.35
14.50
14.92
15.62
16.65
17.94
19.23
20.10
20.13
19.07
16.96
14.11
11.00
7.96
5.14
2.39
-0.60
-4.06
-8.03
-12.28
-16.43
-20.13
-23.20
-25.73
-27.96
-30.27
-33.06
-36.61
-41.05
-46.07
-50.92
-54.34
-54.95
-51.64
-44.04
-32.75
-19.23
-5.29
7.39
17.76
25.48
30.76
34.06
35.78
36.16
35.30
33.37
30.68
27.71
24.99
22.94
21.78
21.48
21.89
22.80
24.02
25.39
26.73
27.88
28.65
28.92
28.59
27.62
25.98
23.68
20.78
17.47
14.00
10.65
7.62
5.00
2.64
0.37
-2.05
-4.77
-7.84
-11.20
-14.73
-18.30
-21.76
-24.96
-27.82
-30.36
-32.71
-35.10
-37.86
-41.29
-45.48
-50.10
-54.31
-56.84
-56.30
-51.68
-42.79
-30.41
-16.06
-1.53
11.65
22.56
30.91
36.81
40.47
42.08
41.79
39.88
36.83
33.27
29.87
27.09
25.15
24.04
23.60
23.64
24.03
24.67
25.47
26.31
27.04
27.44
27.32
26.52
24.99
22.78
20.12
17.31
14.69
12.46
10.63
9.00
7.23
5.03
2.29
-0.84
-3.98
-6.72
-8.82
-10.26
-11.34
-12.47
-14.07
-16.33
-19.19
-22.38
-25.49
-28.24
-30.50
-32.44
-34.40
-36.76
-39.88
-43.90
-48.59
-53.24
-56.68
-57.47
-54.31
-46.54
-34.52
-19.61
-3.82
10.84
22.91
31.76
37.51
40.68
41.81
41.29
39.35
36.22
32.29
28.06
24.07
20.73
18.29
16.78
16.18
16.34
17.13
18.34
19.69
20.85
21.51
21.46
20.65
19.18
17.21
14.94
12.49
9.96
7.42
4.91
2.47
0.11
-2.18
-4.40
-6.57
-8.67
-10.73
-12.76
-14.83
-16.96
-19.13
-21.23
-23.14
-24.74
-26.02
-27.13
-28.40
-30.25
-33.09
-37.00
-41.57
-45.79
-48.24
-47.45
-42.50
-33.34
-20.91
-6.86
6.98
19.14
28.76
35.62
39.94
42.08
42.38
41.11
38.52
34.92
30.73
26.42
22.47
19.25
16.94
15.51
14.84
14.73
15.03
15.65
16.49
17.36
18.03
18.23
17.76
16.62
14.92
12.85
10.57
8.10
5.43
2.52
-0.54
-3.60
-6.42
-8.86
-10.85
-12.47
-13.97
-15.63
-17.69
-20.27
-23.25
-26.36
-29.20
-31.48
-33.11
-34.38
-35.81
-38.00
-41.34
-45.72
-50.43
-54.24
-55.62
-53.25
-46.42
-35.38
-21.33
-6.11
8.33
20.43
29.38
35.15
38.25
39.33
38.98
37.58
35.38
32.60
29.50
26.42
23.63
21.33
19.61
18.45
17.82
17.72
18.14
19.09
20.47
22.00
23.25
23.75
23.11
21.25
18.43
15.14
11.89
9.02
6.54
4.26
1.97
-0.42
-2.79
-4.95
-6.76
-8.26
-9.67
-11.25
-13.24
-15.72
-18.56
-21.55
-24.44
-26.99
-29.11
-30.81
-32.31
-34.01
-36.36
-39.68
-43.97
-48.61
-52.47
-53.99
-51.75
-44.90
-33.61
-19.10
-3.32
11.65
24.20
33.54
39.73
43.32
44.99
45.22
44.20
41.99
38.65
34.48
29.94
25.61
22.00
19.36
17.69
16.79
16.43
16.40
16.63
17.04
17.52
17.84
17.71
16.93
15.43
13.39
11.09
8.79
6.62
4.49
2.23
-0.28
-3.04
-5.82
-8.24
-9.99
-10.91
-11.15
-11.11
-11.32
-12.23
-14.06
-16.71
-19.88
-23.23
-26.53
-29.80
-33.28
-37.28
-42.02
-47.39
-52.78
-57.13
-59.07
-57.35
-51.20
-40.73
-26.94
-11.52
3.65
16.98
27.54
35.07
39.81
42.17
42.52
41.10
38.13
33.91
28.96
23.91
19.39
15.83
13.39
12.02
11.46
11.51
11.97
12.73
13.65
14.60
15.35
15.60
15.09
13.62
11.21
8.13
4.78
1.58
-1.15
-3.43
-5.53
-7.84
-10.68
-14.08
-17.78
-21.37
-24.45
-26.87
-28.74
-30.41
-32.35
-34.99
-38.58
-43.00
-47.62
-51.32
-52.65
-50.30
-43.57
-32.69
-18.86
-3.86
10.45
22.63
31.94
38.23
41.76
42.92
42.09
39.60
35.83
31.26
26.46
22.04
18.44
15.91
14.38
13.60
13.27
13.18
13.26
13.52
13.90
14.26
14.32
13.82
12.65
10.89
8.77
6.51
4.22
1.80
-0.93
-4.14
-7.85
-11.88
-15.90
-19.57
-22.68
-25.19
-27.27
-29.23
-31.51
-34.54
-38.61
-43.60
-48.80
-52.89
-54.17
-51.16
-43.16
-30.66
-15.21
1.03
15.99
28.25
37.22
42.96
45.82
46.23
44.53
41.07
36.33
30.91
25.49
20.67
16.84
14.09
12.31
11.24
10.69
10.60
11.01
11.99
13.43
14.98
16.11
16.24
15.04
12.56
9.26
5.78
2.68
0.19
-1.89
-4.01
-6.62
-9.92
-13.79
-17.84
-21.63
-24.85
-27.39
-29.40
-31.18
-33.11
-35.62
-39.01
-43.25
-47.77
-51.41
-52.61
-49.91
-42.53
-30.73
-15.85
0.12
15.14
27.66
36.89
42.79
45.75
46.27
44.81
41.75
37.46
32.45
27.30
22.60
18.80
16.11
14.42
13.45
12.88
12.51
12.37
12.61
13.36
14.60
16.07
17.30
17.77
17.10
15.20
12.28
8.78
5.23
2.06
-0.55
-2.69
-4.65
-6.81
-9.44
-12.60
-16.17
-19.83
-23.26
-26.25
-28.74
-30.82
-32.81
-35.09
-38.06
-41.96
-46.57
-51.15
-54.41
-54.80
-51.03
-42.57
-29.95
-14.67
1.24
15.81
27.66
36.14
41.34
43.66
43.61
41.61
38.03
33.28
27.92
22.57
17.85
14.17
11.72
10.43
10.11
10.53
11.51
12.85
14.41
15.95
17.18
17.78
17.45
16.06
13.70
10.67
7.40
4.27
1.52
-0.88
-3.18
-5.73
-8.80
-12.43
-16.41
-20.33
-23.75
-26.41
-28.32
-29.86
-31.60
-34.14
-37.81
-42.46
-47.29
-50.97
-51.93
-48.92
-41.38
-29.79
-15.56
-0.55
13.45
25.22
34.23
40.53
44.36
45.87
45.09
42.08
37.13
30.96
24.54
18.85
14.60
12.05
11.03
11.13
11.91
13.05
14.36
15.73
17.01
17.98
18.34
17.80
16.24
13.67
10.39
6.81
3.40
0.49
-1.86
-3.84
-5.84
-8.31
-11.49
-15.33
-19.46
-23.36
-26.54
-28.77
-30.22
-31.38
-32.93
-35.52
-39.55
-44.93
-50.96
-56.30
-59.29
-58.31
-52.41
-41.65
-27.19
-10.96
4.94
18.84
29.85
37.86
43.22
46.39
47.72
47.40
45.65
42.77
39.28
35.75
32.72
30.52
29.27
28.90
29.28
30.30
31.86
33.88
36.27
38.84
41.34
43.51
45.11
46.00
46.18
45.79
45.02
44.05
42.96
41.77
40.41
38.79
36.87
34.62
32.04
29.02
25.38
20.86
15.13
7.87
-1.17
-12.16
-25.07
-39.79
-56.09
-73.69
-92.31
-111.62
-131.10
-149.90
-166.77
-180.24
-188.92
-191.97
-189.41
-182.17
-171.98
-160.84
-150.59
-142.60
-137.61
-135.92
-137.51
-142.29
-150.05
-160.33
-172.19
-184.18
-194.59
-202.04
-206.00
-207.03
-206.49
-205.85
-205.97
-206.67
-206.82
-204.81
-199.00
-188.16
-171.61
-149.43
-122.54
-92.75
-62.54
-34.56
-10.88
7.57
21.16
31.17
39.16
46.36
53.36
60.10
66.21
71.26
74.95
77.18
77.92
77.14
74.90
71.50
67.64
64.51
63.52
65.89
72.12
81.83
93.87
106.85
119.60
131.45
142.17
151.58
159.26
164.48
166.51
164.98
160.19
153.14
145.27
137.96
132.15
128.16
125.70
124.14
122.83
121.26
119.22
116.65
113.60
110.03
105.88
101.01
95.36
88.90
81.76
74.12
66.21
58.31
50.67
43.58
37.29
32.01
27.88
24.85
22.75
21.21
19.80
18.14
16.15
14.22
13.28
14.65
19.71
29.54
44.60
64.56
88.23
113.74
138.85
161.36
179.48
192.09
198.72
199.41
194.47
184.42
170.06
152.52
133.27
113.88
95.66
79.26
64.64
51.11
37.77
23.90
9.24
-5.95
-20.89
-34.58
-45.96
-54.08
-58.19
-57.83
-52.88
-43.77
-31.55
-17.91
-4.88
5.59
12.14
14.29
12.50
7.84
1.67
-4.79
-10.67
-15.51
-19.26
-22.15
-24.63
-27.19
-30.17
-33.59
-36.99
-39.50
-40.03
-37.71
-32.21
-23.97
-14.12
-4.10
4.82
11.88
16.90
20.24
22.26
23.08
22.60
20.77
17.79
14.16
10.52
7.41
5.31
4.33
4.25
4.69
5.27
5.84
6.41
7.10
8.00
9.44
11.39
13.43
14.92
15.40
14.87
13.73
12.43
11.33
11.48
13.29
16.29
19.41
21.68
22.77
22.81
22.22
21.41
22.76
27.66
35.68
44.73
52.44
57.35
59.13
58.42
56.59
58.68
68.30
85.90
108.68
132.72
154.83
173.12
186.80
195.82
204.91
217.19
232.43
247.36
258.52
264.39
265.39
262.70
230.21
156.98
51.47
-62.82
-163.86
-241.25
-294.68
-328.68
-348.89
-360.16
-361.45
-352.30
-334.25
-311.19
-287.49
-266.26
-249.11
-236.60
-228.50
-220.56
-209.42
-194.20
-176.64
-159.37
-144.35
-132.68
-124.78
-120.54
-117.20
-112.38
-105.19
-96.57
-88.25
-81.79
-78.16
-77.64
-79.81
-82.73
-84.60
-84.51
-82.62
-79.47
-75.21
-69.46
-61.49
-50.70
-36.64
-19.82
-1.71
15.68
30.53
41.81
49.36
53.67
55.53
55.70
54.80
53.29
51.49
49.73
48.30
47.40
47.12
47.32
47.74
48.04
47.90
47.11
45.50
42.94
39.31
34.57
28.82
22.39
15.81
9.61
4.24
-0.14
-3.58
-6.32
-8.63
-10.69
-12.49
-13.92
-14.72
-14.67
-13.58
-11.47
-8.55
-5.21
-1.99
0.65
2.42
3.28
3.41
3.04
2.24
0.94
-1.16
-4.33
-8.67
-14.01
-19.83
-25.34
-29.64
-31.86
-31.35
-27.89
-21.72
-13.60
-4.61
4.14
11.74
17.70
21.94
24.67
26.25
27.01
27.24
27.16
26.96
26.88
27.12
27.83
29.06
30.70
32.52
34.25
35.64
36.54
36.87
36.68
36.00
34.82
33.08
30.68
27.56
23.77
19.55
15.24
11.26
7.95
5.44
3.61
2.18
0.79
-0.86
-2.81
-4.95
-7.07
-9.00
-10.73
-12.44
-14.40
-16.83
-19.83
-23.25
-26.85
-30.28
-33.18
-35.14
-35.68
-34.39
-30.98
-25.53
-18.55
-10.84
-3.36
3.13
8.12
11.47
13.23
13.61
12.88
11.38
9.54
7.82
6.57
6.02
6.16
6.87
8.03
9.54
11.37
13.46
15.67
17.77
19.51
20.67
21.12
20.83
19.79
18.09
15.84
13.20
10.34
7.37
4.34
1.17
-2.20
-5.77
-9.42
-12.88
-15.92
-18.38
-20.33
-21.95
-23.53
-25.31
-27.43
-29.86
-32.36
-34.48
-35.51
-34.73
-31.52
-25.67
-17.42
-7.52
3.02
13.17
22.10
29.33
34.63
38.03
39.64
39.64
38.31
35.94
32.90
29.53
26.13
22.94
20.17
17.98
16.48
15.67
15.45
15.56
15.70
15.54
14.86
13.53
11.48
8.71
5.27
1.30
-2.93
-7.10
-10.90
-14.15
-16.88
-19.21
-21.32
-23.23
-24.85
-25.97
-26.40
-26.13
-25.30
-24.24
-23.31
-22.85
-23.10
-24.12
-25.82
-27.80
-29.42
-29.86
-28.25
-24.02
-17.10
-8.05
2.10
12.11
20.93
27.90
32.80
35.72
36.85
36.37
34.44
31.25
27.07
22.32
17.42
12.77
8.66
5.26
2.61
0.72
-0.48
-1.08
-1.21
-1.05
-0.76
-0.46
-0.27
-0.24
-0.38
-0.61
-0.83
-0.93
-0.84
-0.56
-0.17
0.20
0.46
0.56
0.52
0.34
-0.01
-0.64
-1.66
-3.12
-4.94
-6.92
-8.85
-10.61
-12.21
-13.76
-15.43
-17.37
-19.63
-22.09
-24.47
-26.32
-27.06
-26.13
-23.17
-18.15
-11.44
-3.72
4.15
11.35
17.29
21.68
24.50
25.87
25.97
24.94
22.96
20.28
17.31
14.56
12.48
11.33
11.05
11.32
11.75
12.04
12.15
12.22
12.43
12.82
13.21
13.32
12.85
11.67
9.84
7.57
5.12
2.72
0.50
-1.55
-3.50
-5.48
-7.54
-9.68
-11.80
-13.73
-15.36
-16.65
-17.76
-18.94
-20.47
-22.56
-25.28
-28.50
-31.96
-35.22
-37.76
-38.97
-38.34
-35.60
-30.81
-24.44
-17.23
-9.98
-3.38
2.17
6.52
9.77
12.11
13.74
14.88
15.74
16.51
17.43
18.70
20.45
22.64
25.07
27.39
29.17
30.06
29.89
28.68
26.58
23.86
20.74
17.42
14.08
10.90
8.04
5.66
3.85
2.57
1.69
0.99
0.27
-0.69
-1.98
-3.62
-5.52
-7.49
-9.37
-11.01
-12.41
-13.68
-15.08
-16.87
-19.25
-22.20
-25.44
-28.43
-30.39
-30.55
-28.31
-23.50
-16.50
-8.11
0.58
8.56
15.15
20.06
23.34
25.22
25.92
25.60
24.40
22.53
20.24
17.84
15.58
13.66
12.18
11.23
10.84
10.98
11.52
12.18
12.70
12.84
12.53
11.89
11.10
10.31
9.51
8.57
7.31
5.63
3.62
1.52
-0.36
-1.84
-2.96
-3.97
-5.19
-6.83
-8.88
-11.09
-13.16
-14.83
-16.06
-17.03
-17.98
-19.15
-20.68
-22.62
-24.90
-27.38
-29.71
-31.38
-31.75
-30.22
-26.43
-20.53
-13.12
-5.13
2.45
8.84
13.68
16.97
18.93
19.86
19.99
19.46
18.33
16.72
14.78
12.77
10.94
9.51
8.58
8.17
8.20
8.52
8.97
9.43
9.81
10.04
10.10
9.96
9.60
9.01
8.17
7.12
5.88
4.49
3.02
1.48
-0.11
-1.75
-3.43
-5.13
-6.82
-8.45
-9.96
-11.25
-12.26
-12.98
-13.49
-13.96
-14.63
-15.69
-17.26
-19.34
-21.78
-24.33
-26.57
-27.96
-27.96
-26.15
-22.39
-16.94
-10.42
-3.59
2.83
8.37
12.83
16.22
18.59
19.97
20.33
19.67
18.10
15.84
13.24
10.67
8.46
6.83
5.81
5.33
5.27
5.47
5.84
6.29
6.75
7.13
7.28
7.04
6.32
5.14
3.66
2.10
0.66
-0.59
-1.73
-2.93
-4.35
-6.02
-7.83
-9.56
-11.03
-12.16
-13.01
-13.83
-14.86
-16.32
-18.27
-20.59
-22.95
-24.88
-25.86
-25.39
-23.18
-19.24
-13.88
-7.70
-1.36
4.48
9.38
13.12
15.69
17.20
17.83
17.71
17.00
15.80
14.24
12.48
10.71
9.13
7.91
7.15
6.85
6.90
7.12
7.35
7.52
7.59
7.60
7.52
7.28
6.76
5.89
4.65
3.16
1.56
0.01
-1.42
-2.74
-4.03
-5.41
-6.91
-8.55
-10.26
-11.93
-13.47
-14.80
-15.93
-16.98
-18.12
-19.55
-21.39
-23.58
-25.85
-27.73
-28.66
-28.14
-25.89
-21.91
-16.52
-10.23
-3.63
2.75
8.49
13.29
16.97
19.49
20.87
21.22
20.67
19.39
17.54
15.35
13.06
10.95
9.27
8.14
7.58
7.49
7.74
8.25
8.96
9.83
10.74
11.50
11.91
11.81
11.18
10.11
8.76
7.32
5.92
4.65
3.56
2.64
1.88
1.17
0.39
-0.57
-1.74
-3.06
-4.40
-5.65
-6.77
-7.85
-9.04
-10.51
-12.37
-14.68
-17.43
-20.62
-24.18
-27.96
-31.63
-34.68
-36.56
-36.85
-35.43
-32.54
-28.69
-24.47
-20.38
-16.69
-13.46
-10.65
-8.19
-6.08
-4.38
-3.13
-2.32
-1.81
-1.33
-0.57
0.76
2.78
5.42
8.43
11.55
14.53
17.30
19.87
22.26
24.38
26.03
26.98
27.09
26.44
25.27
23.87
22.38
20.78
18.87
16.43
13.39
9.91
6.37
3.21
0.83
-0.55
-0.93
-0.48
0.53
1.76
2.94
3.89
4.55
5.01
5.45
6.07
7.04
8.42
10.19
12.23
14.35
16.32
17.94
19.01
19.40
19.03
17.86
15.90
13.16
9.74
5.79
1.59
-2.49
-6.08
-8.82
-10.55
-11.24
-11.01
-10.10
-8.77
-7.32
-6.01
-5.10
-4.77
-5.06
-5.84
-6.86
-7.85
-8.62
-9.14
-9.50
-9.82
-10.19
-10.60
-11.02
-11.43
-11.89
-12.44
-13.10
-13.75
-14.26
-14.48
-14.42
-14.24
-14.22
-14.63
-15.60
-17.05
-18.73
-20.17
-20.88
-20.38
-18.32
-14.56
-9.24
-2.76
4.29
11.22
17.38
22.34
25.85
27.89
28.56
28.03
26.52
24.29
21.65
18.93
16.41
14.29
12.70
11.63
11.01
10.72
10.61
10.49
10.21
9.67
8.88
7.91
6.89
5.87
4.87
3.84
2.74
1.58
0.48
-0.47
-1.19
-1.74
-2.26
-2.90
-3.73
-4.70
-5.67
-6.47
-7.02
-7.41
-7.84
-8.54
-9.69
-11.35
-13.44
-15.87
-18.46
-21.07
-23.44
-25.21
-25.93
-25.16
-22.69
-18.64
-13.48
-7.88
-2.52
2.09
5.71
8.28
9.87
10.57
10.46
9.64
8.29
6.64
5.05
3.81
3.16
3.15
3.68
4.56
5.52
6.39
7.06
7.53
7.84
7.99
7.95
7.66
7.08
6.25
5.29
4.32
3.44
2.61
1.74
0.74
-0.44
-1.74
-3.05
-4.26
-5.36
-6.37
-7.36
-8.36
-9.38
-10.41
-11.49
-12.72
-14.21
-16.05
-18.21
-20.55
-22.84
-24.81
-26.18
-26.71
-26.17
-24.41
-21.42
-17.36
-12.55
-7.39
-2.32
2.33
6.28
9.37
11.51
12.65
12.86
12.28
11.14
9.71
8.23
6.85
5.61
4.46
3.33
2.14
0.86
-0.51
-1.89
-3.22
-4.45
-5.60
-6.79
-8.19
-9.98
-12.26
-14.93
-17.70
-20.12
-21.71
-22.18
-21.53
-20.07
-18.31
-16.75
-15.70
-15.20
-15.08
-15.11
-15.13
-15.19
-15.42
-16.01
-17.01
-18.28
-19.43
-19.91
-19.07
-16.37
-11.52
-4.59
3.99
13.49
23.09
31.97
39.43
44.92
48.09
48.77
47.08
43.45
38.63
33.46
28.74
24.94
22.13
20.05
18.35
16.78
15.33
14.20
13.56
13.43
13.55
13.54
13.04
11.91
10.27
8.41
6.60
4.98
3.55
2.20
0.87
-0.44
-1.64
-2.70
-3.63
-4.53
-5.51
-6.63
-7.83
-8.97
-9.88
-10.47
-10.80
-11.05
-11.48
-12.33
-13.69
-15.44
-17.18
-18.35
-18.31
-16.57
-12.90
-7.45
-0.79
6.33
13.08
18.86
23.30
26.37
28.17
28.86
28.57
27.38
25.40
22.78
19.79
16.71
13.83
11.42
9.61
8.46
7.95
7.98
8.37
8.90
9.30
9.36
8.90
7.88
6.41
4.68
2.91
1.27
-0.18
-1.50
-2.76
-4.00
-5.17
-6.16
-6.87
-7.32
-7.62
-7.98
-8.55
-9.37
-10.33
-11.25
-11.94
-12.36
-12.68
-13.17
-14.14
-15.76
-18.00
-20.63
-23.27
-25.50
-26.89
-27.12
-25.94
-23.31
-19.41
-14.63
-9.49
-4.56
-0.32
2.95
5.16
6.39
6.84
6.71
6.14
5.23
3.99
2.49
0.88
-0.60
-1.62
-1.85
-1.06
0.76
3.41
6.49
9.47
11.83
13.13
13.21
12.18
10.41
8.46
6.86
5.92
5.58
5.47
5.04
3.76
1.35
-2.09
-6.07
-9.93
-12.98
-14.79
-15.32
-14.92
-14.21
-13.92
-14.62
-16.63
-19.85
-23.72
-27.41
-29.94
-30.52
-28.70
-24.57
-18.68
-11.94
-5.41
-0.02
3.62
5.39
5.64
5.05
4.32
3.91
3.90
4.00
3.82
3.19
2.27
1.53
1.48
2.45
4.44
7.14
10.16
13.07
15.60
17.57
18.93
19.67
19.88
19.68
19.24
18.74
18.29
17.96
17.71
17.42
16.91
16.00
14.60
12.79
10.81
8.96
7.54
6.67
6.34
6.35
6.47
6.54
6.44
6.16
5.74
5.23
4.76
4.49
4.64
5.41
6.88
8.88
11.03
12.79
13.62
13.13
11.21
7.94
3.65
-1.22
-6.05
-10.12
-12.63
-12.89
-10.52
-5.66
0.92
7.99
14.20
18.50
20.44
20.27
18.69
16.51
14.28
12.14
9.92
7.33
4.24
0.77
-2.79
-6.09
-8.85
-10.91
-12.18
-12.62
-12.27
-11.35
-10.25
-9.48
-9.47
-10.32
-11.68
-12.82
-12.91
-11.39
-8.22
-3.85
1.02
5.79
10.18
14.29
18.35
22.52
26.72
30.63
33.84
35.95
36.68
35.88
33.52
29.77
24.98
19.68
14.39
9.43
4.76
0.00
-5.30
-11.37
-18.04
-24.73
-30.66
-35.24
-38.22
-39.79
-40.48
-41.02
-42.06
-44.09
-47.27
-51.41
-55.91
-59.89
-62.31
-62.30
-59.29
-53.22
-44.57
-34.17
-23.04
-12.08
-1.87
7.45
16.15
24.63
33.12
41.29
48.27
52.76
53.58
50.13
42.69
32.42
21.00
10.21
1.42
-4.55
-7.50
-7.69
-5.74
-2.50
1.01
3.73
4.75
3.58
0.31
-4.42
-9.61
-14.28
-17.83
-20.20
-21.84
-23.44
-25.56
-28.34
-31.43
-34.08
-35.42
-34.80
-32.03
-27.33
-21.27
-14.54
-7.72
-1.24
4.69
9.91
14.36
17.95
20.61
22.31
23.06
22.94
22.07
20.59
18.66
16.43
14.05
11.59
9.14
6.71
4.26
1.74
-0.88
-3.65
-6.51
-9.38
-12.08
-14.48
-16.55
-18.36
-20.09
-21.93
-23.93
-25.96
-27.60
-28.31
-27.49
-24.73
-19.92
-13.38
-5.78
2.01
9.13
14.91
19.07
21.63
22.86
23.06
22.50
21.34
19.68
17.61
15.23
12.68
10.14
7.78
5.77
4.28
3.38
3.04
3.12
3.41
3.61
3.51
2.94
1.89
0.44
-1.24
-2.97
-4.61
-6.12
-7.66
-9.48
-11.89
-15.01
-18.63
-22.14
-24.64
-25.25
-23.34
-18.81
-12.12
-4.20
3.87
11.13
16.98
21.18
23.83
25.19
25.55
25.18
24.31
23.10
21.70
20.27
18.92
17.79
16.98
16.54
16.48
16.70
17.01
17.21
17.16
16.86
16.34
15.64
14.78
13.64
12.16
10.37
8.43
6.60
5.08
3.87
2.80
1.60
0.08
-1.77
-3.80
-5.73
-7.43
-8.89
-10.29
-11.81
-13.57
-15.53
-17.52
-19.34
-20.92
-22.33
-23.77
-25.53
-27.85
-30.80
-34.21
-37.65
-40.39
-41.63
-40.61
-36.83
-30.22
-21.24
-10.76
0.08
10.16
18.59
24.89
28.95
31.03
31.54
30.96
29.65
27.86
25.74
23.42
21.09
18.97
17.27
16.17
15.70
15.75
16.12
16.60
16.98
17.17
17.12
16.83
16.27
15.37
14.06
12.32
10.25
8.02
5.89
4.02
2.50
1.23
0.01
-1.40
-3.17
-5.36
-7.90
-10.67
-13.50
-16.23
-18.74
-20.98
-23.00
-24.94
-26.99
-29.33
-32.02
-34.91
-37.55
-39.25
-39.24
-36.93
-32.07
-24.89
-16.04
-6.42
3.10
11.80
19.25
25.24
29.73
32.74
34.39
34.88
34.48
33.44
31.97
30.14
27.92
25.30
22.39
19.48
16.93
15.01
13.83
13.24
12.98
12.78
12.46
11.92
11.13
10.08
8.75
7.21
5.60
4.12
2.94
2.13
1.59
1.13
0.52
-0.41
-1.70
-3.31
-5.15
-7.10
-9.09
-11.05
-12.95
-14.73
-16.34
-17.77
-19.06
-20.38
-21.96
-24.03
-26.62
-29.49
-32.07
-33.62
-33.38
-30.87
-25.98
-19.08
-10.88
-2.34
5.62
12.28
17.25
20.58
22.60
23.80
24.63
25.33
25.92
26.25
26.14
25.49
24.33
22.77
20.96
19.08
17.31
15.87
14.94
14.62
14.84
15.34
15.71
15.59
14.68
12.88
10.28
7.08
3.55
-0.06
-3.46
-6.38
-8.62
-10.04
-10.65
-10.62
-10.23
-9.87
-9.86
-10.43
-11.63
-13.31
-15.17
-16.91
-18.30
-19.29
-20.02
-20.68
-21.52
-22.68
-24.20
-25.98
-27.80
-29.25
-29.86
-29.16
-26.77
-22.60
-16.88
-10.11
-2.98
3.82
9.71
14.30
17.43
19.11
19.54
19.02
17.88
16.45
14.98
13.66
12.60
11.85
11.46
11.38
11.56
11.87
12.15
12.27
12.13
11.75
11.21
10.56
9.84
9.01
7.99
6.74
5.32
3.87
2.57
1.56
0.86
0.40
0.00
-0.51
-1.28
-2.34
-3.64
-5.10
-6.61
-8.07
-9.46
-10.78
-12.05
-13.36
-14.80
-16.53
-18.68
-21.24
-23.98
-26.40
-27.81
-27.59
-25.39
-21.26
-15.64
-9.22
-2.70
3.31
8.42
12.41
15.24
16.93
17.60
17.42
16.58
15.29
13.72
12.01
10.30
8.75
7.48
6.53
5.88
5.41
5.01
4.62
4.26
4.03
4.02
4.21
4.48
4.66
4.62
4.31
3.80
3.19
2.58
1.95
1.25
0.43
-0.52
-1.56
-2.64
-3.73
-4.81
-5.91
-7.08
-8.35
-9.77
-11.33
-12.99
-14.67
-16.27
-17.78
-19.30
-20.98
-22.94
-25.06
-26.92
-27.86
-27.24
-24.66
-20.18
-14.29
-7.72
-1.21
4.72
9.74
13.74
16.63
18.39
19.05
18.77
17.79
16.39
14.83
13.23
11.65
10.09
8.61
7.32
6.32
5.70
5.47
5.58
5.96
6.47
6.99
7.37
7.50
7.36
7.04
6.69
6.40
6.15
5.78
5.09
3.97
2.47
0.79
-0.84
-2.30
-3.59
-4.85
-6.18
-7.62
-9.11
-10.53
-11.80
-12.88
-13.85
-14.84
-16.02
-17.55
-19.51
-21.84
-24.26
-26.30
-27.40
-27.05
-24.98
-21.21
-16.07
-10.10
-3.87
2.10
7.40
11.80
15.13
17.37
18.52
18.68
18.01
16.77
15.21
13.58
12.04
10.71
9.63
8.84
8.39
8.29
8.50
8.87
9.22
9.38
9.24
8.88
8.43
8.03
7.71
7.40
6.97
6.36
5.55
4.65
3.78
2.99
2.30
1.63
0.91
0.04
-1.04
-2.39
-4.02
-5.87
-7.79
-9.60
-11.15
-12.38
-13.36
-14.31
-15.46
-17.00
-18.99
-21.27
-23.43
-24.85
-24.82
-22.83
-18.72
-12.84
-5.98
0.81
6.61
10.81
13.29
14.26
14.16
13.39
12.26
10.91
9.24
6.98
3.64
-1.17
-7.40
-14.17
-19.82
-22.24
-19.71
-11.61
1.21
16.60
31.81
44.23
52.04
54.46
51.72
44.90
35.67
26.00
17.68
11.93
9.04
8.31
8.45
8.03
5.99
1.96
-3.72
-10.23
-16.49
-21.56
-24.87
-26.38
-26.55
-26.17
-25.99
-26.43
-27.32
-27.97
-27.36
-24.52
-18.93
-10.80
-1.10
8.66
16.87
22.31
24.52
23.91
21.47
18.45
15.86
14.21
13.50
13.34
13.20
12.73
12.10
12.28
14.83
21.39
32.75
48.16
65.21
80.43
90.52
93.47
89.04
78.42
63.42
45.55
25.72
4.49
-17.40
-38.72
-57.90
-73.50
-84.73
-91.67
-95.05
-95.82
-94.74
-92.19
-88.27
-83.07
-76.84
-70.11
-63.54
-57.69
-52.88
-49.01
-45.70
-42.39
-38.55
-33.85
-28.18
-21.71
-14.75
-7.69
-0.87
5.49
11.28
16.44
20.93
24.66
27.48
29.28
30.01
29.80
28.92
27.79
26.77
26.11
25.78
25.60
25.31
24.75
23.92
22.98
22.14
21.48
20.92
20.25
19.22
17.75
15.98
14.22
12.86
12.12
11.97
12.14
12.27
12.11
11.59
10.79
9.90
8.96
7.95
6.79
5.53
4.45
4.02
4.65
6.49
9.28
12.48
15.50
17.90
19.54
20.50
20.92
20.91
20.45
19.49
18.07
16.29
14.37
12.54
10.97
9.70
8.64
7.58
6.25
4.46
2.24
-0.15
-2.36
-4.26
-6.14
-8.75
-12.98
-19.31
-27.53
-36.70
-45.59
-53.22
-59.28
-64.07
-68.12
-71.73
-74.72
-76.60
-76.88
-75.32
-71.95
-66.94
-60.36
-52.14
-42.23
-30.79
-18.40
-5.92
5.65
15.57
23.43
29.26
33.38
36.18
38.01
39.01
39.23
38.60
37.07
34.70
31.72
28.43
25.24
22.52
20.56
19.46
19.13
19.31
19.67
19.87
19.68
19.01
17.87
16.29
14.32
11.93
9.05
5.67
1.87
-2.16
-6.12
-9.72
-12.76
-15.15
-16.93
-18.17
-18.86
-18.89
-18.07
-16.18
-13.09
-8.86
-3.74
1.87
7.52
12.74
17.12
20.35
22.31
23.12
23.19
23.08
23.26
23.83
24.43
24.26
22.49
18.57
12.57
5.27
-2.16
-8.49
-12.89
-15.12
-15.52
-14.86
-13.94
-13.35
-13.28
-13.55
-13.85
-13.99
-14.03
-14.25
-14.93
-16.14
-17.61
-18.91
-19.64
-19.62
-18.92
-17.68
-15.92
-13.51
-10.25
-6.14
-1.44
3.36
7.81
11.75
15.36
18.93
22.58
25.98
28.35
28.85
26.96
22.85
17.38
11.78
7.22
4.42
3.50
4.12
5.67
7.59
9.41
10.77
11.40
11.07
9.63
7.14
3.85
0.20
-3.32
-6.34
-8.72
-10.57
-12.16
-13.85
-15.84
-18.16
-20.55
-22.59
-23.78
-23.68
-22.08
-19.05
-14.95
-10.31
-5.70
-1.60
1.72
4.20
5.94
7.10
7.83
8.22
8.25
7.88
7.06
5.73
3.92
1.76
-0.61
-2.99
-5.24
-7.21
-8.84
-10.08
-10.93
-11.43
-11.64
-11.71
-11.75
-11.86
-12.01
-12.11
-12.03
-11.66
-11.03
-10.30
-9.76
-9.69
-10.24
-11.34
-12.62
-13.60
-13.71
-12.55
-9.95
-6.03
-1.12
4.36
9.99
15.48
20.57
25.08
28.83
31.61
33.27
33.72
32.97
31.12
28.35
24.87
20.92
16.73
12.55
8.62
5.17
2.32
0.12
-1.55
-2.88
-4.11
-5.42
-6.91
-8.53
-10.20
-11.79
-13.25
-14.60
-15.98
-17.57
-19.57
-22.05
-24.96
-27.99
-30.64
-32.31
-32.43
-30.71
-27.15
-22.14
-16.31
-10.35
-4.87
-0.26
3.32
5.95
7.88
9.37
10.68
11.87
12.93
13.72
14.15
14.27
14.27
14.41
14.95
15.95
17.33
18.82
20.08
20.71
20.41
18.98
16.37
12.71
8.32
3.65
-0.83
-4.75
-7.98
-10.59
-12.79
-14.84
-16.93
-19.10
-21.19
-22.85
-23.69
-23.37
-21.64
-18.50
-14.15
-9.00
-3.59
1.65
6.36
10.29
13.31
15.37
16.54
16.87
16.34
14.87
12.63
9.96
7.28
5.00
3.51
3.04
3.63
5.02
6.66
8.23
9.48
10.19
10.40
10.49
11.20
13.23
16.68
20.93
25.29
29.19
32.46
35.45
38.92
43.52
49.40
56.07
59.91
58.47
51.54
41.07
29.20
16.85
4.19
-8.17
-18.66
-25.34
-26.68
-23.06
-16.95
-11.86
-10.58
-13.83
-20.19
-27.07
-32.02
-33.29
-30.48
-24.37
-16.41
-8.18
-0.94
4.42
7.43
8.06
6.96
5.15
3.48
2.25
1.21
-0.24
-2.59
-5.75
-9.15
-11.86
-13.15
-12.70
-10.61
-7.23
-3.05
1.22
4.55
5.76
4.09
-0.29
-6.11
-11.51
-14.82
-15.36
-13.65
-11.20
-9.85
-11.06
-15.39
-22.36
-30.68
-38.50
-43.86
-44.91
-40.43
-30.16
-14.68
4.79
26.64
49.29
70.88
89.04
101.66
107.27
105.22
95.85
80.46
61.15
40.16
19.08
-1.63
-22.49
-44.28
-66.94
-88.81
-107.01
-118.43
-121.04
-114.82
-101.30
-82.28
-58.90
-31.49
-0.07
34.94
72.39
110.55
147.04
178.63
201.11
209.88
201.78
176.93
139.61
96.88
55.71
20.29
-8.63
-32.31
-51.41
-64.60
-69.48
-65.17
-54.53
-43.92
-40.36
-47.56
-63.92
-83.28
-98.17
-103.84
-100.52
-92.98
-87.98
-91.03
-104.13
-125.43
-150.71
-175.47
-196.82
-213.98
-227.54
-238.12
-245.26
-247.30
-242.23
-228.99
-208.19
-182.00
-153.13
-123.45
-93.14
-60.86
-25.00
14.52
55.26
92.67
122.09
141.26
151.80
158.63
167.44
181.71
200.82
220.60
235.76
242.70
241.23
234.27
225.94
219.50
216.31
215.98
217.36
219.36
221.07
221.50
219.35
212.90
200.65
181.99
157.42
128.43
97.23
66.50
38.94
16.85
1.47
-7.26
-10.60
-10.66
-9.67
-9.16
-9.49
-9.95
-9.44
-7.66
-5.00
-2.19
-0.01
0.95
0.54
-1.10
-3.72
-7.34
-13.21
-21.94
-32.68
-43.64
-53.49
-62.02
-70.20
-79.23
-89.96
-104.11
-121.12
-137.39
-148.39
-151.55
-147.07
-137.33
-125.06
-112.58
-104.59
-103.31
-106.84
-111.23
-114.01
-115.02
-115.78
-117.41
-120.43
-128.99
-145.07
-165.76
-185.46
-199.64
-205.18
-199.68
-180.24
-120.76
-19.85
92.96
179.33
219.98
217.94
191.70
156.94
124.52
98.42
77.89
59.52
42.30
27.69
16.91
9.87
4.81
-0.40
-8.11
-23.30
-48.36
-80.22
-112.74
-140.72
-161.75
-175.84
-183.21
-183.84
-179.09
-169.29
-152.33
-125.22
-86.66
-38.27
15.39
68.14
113.25
144.28
157.79
155.09
141.09
121.49
100.39
79.20
57.23
32.97
5.45
-24.30
-52.63
-74.35
-84.52
-80.17
-61.40
-31.53
3.55
36.91
62.57
77.29
81.23
77.28
69.28
60.16
50.86
40.48
27.32
10.14
-11.01
-34.83
-59.58
-84.03
-107.92
-131.68
-155.22
-176.84
-192.87
-198.55
-190.07
-166.58
-131.30
-90.73
-52.52
-22.76
-4.21
3.92
4.69
1.51
-3.27
-8.89
-15.54
-23.37
-31.68
-38.82
-42.78
-42.02
-36.16
-26.19
-14.01
-1.69
9.31
18.45
26.08
32.86
39.23
45.13
50.00
53.17
54.24
53.40
51.33
48.95
46.94
45.48
44.21
42.44
39.61
35.57
30.68
25.70
21.40
18.29
16.39
15.26
14.20
12.47
9.52
5.17
-0.31
-6.22
-11.50
-14.95
-15.52
-12.56
-6.01
3.63
15.45
28.43
41.67
54.49
66.42
77.05
85.97
92.72
96.98
98.64
97.94
95.42
91.78
87.73
83.74
80.02
76.54
73.09
69.46
65.51
61.27
56.88
52.59
48.61
45.05
41.80
38.56
34.91
30.36
24.61
17.66
9.93
2.31
-4.03
-7.90
-8.38
-5.15
1.51
10.77
21.55
32.78
43.56
53.21
61.23
67.20
70.87
72.13
71.13
68.29
64.17
59.42
54.57
50.01
45.87
42.16
38.80
35.74
32.95
30.45
28.24
26.23
24.26
22.15
19.72
16.89
13.65
10.05
6.14
1.84
-3.00
-8.52
-14.68
-21.10
-26.99
-31.27
-32.79
-30.72
-24.83
-15.59
-4.11
8.17
19.83
29.78
37.44
42.66
45.58
46.45
45.52
42.99
39.18
34.49
29.45
24.62
20.41
17.01
14.40
12.40
10.78
9.34
7.94
6.47
4.83
2.91
0.67
-1.84
-4.49
-7.12
-9.61
-12.01
-14.55
-17.58
-21.40
-26.08
-31.28
-36.24
-39.90
-41.21
-39.46
-34.48
-26.71
-17.07
-6.68
3.38
12.30
19.55
24.81
27.97
29.04
28.23
25.94
22.69
19.04
15.45
12.26
9.62
7.63
6.33
5.69
5.65
6.00
6.47
6.75
6.60
5.89
4.61
2.85
0.76
-1.49
-3.73
-5.88
-7.94
-10.11
-12.69
-15.98
-20.08
-24.75
-29.32
-32.84
-34.32
-32.98
-28.56
-21.36
-12.16
-1.99
8.08
17.16
24.58
29.97
33.19
34.30
33.58
31.45
28.41
24.97
21.51
18.29
15.43
12.95
10.84
9.05
7.59
6.45
5.63
5.06
4.61
4.08
3.26
1.98
0.24
-1.88
-4.19
-6.56
-8.94
-11.39
-14.02
-16.85
-19.81
-22.74
-25.41
-27.67
-29.47
-30.86
-32.03
-33.19
-34.62
-36.43
-38.55
-40.60
-41.92
-41.69
-39.23
-34.15
-26.61
-17.21
-6.86
3.49
13.01
21.14
27.52
31.98
34.47
35.09
34.08
31.84
28.90
25.76
22.85
20.41
18.53
17.17
16.23
15.59
15.14
14.81
14.53
14.27
14.01
13.70
13.23
12.46
11.24
9.49
7.27
4.76
2.21
-0.12
-2.08
-3.62
-4.88
-6.05
-7.32
-8.86
-10.72
-12.83
-15.07
-17.29
-19.35
-21.20
-22.79
-24.15
-25.38
-26.69
-28.31
-30.39
-32.89
-35.45
-37.33
-37.70
-35.89
-31.66
-25.38
-17.87
-10.16
-3.13
2.67
7.09
10.18
12.08
12.90
12.69
11.56
9.70
7.43
5.08
2.96
1.28
0.11
-0.58
-0.86
-0.85
-0.64
-0.33
0.02
0.35
0.62
0.80
0.82
0.58
-0.01
-0.99
-2.34
-3.93
-5.61
-7.23
-8.72
-10.03
-11.21
-12.30
-13.36
-14.46
-15.67
-17.05
-18.60
-20.24
-21.83
-23.23
-24.31
-25.09
-25.75
-26.58
-27.82
-29.58
-31.66
-33.64
-34.84
-34.65
-32.67
-28.86
-23.54
-17.28
-10.72
-4.40
1.23
5.93
9.57
12.12
13.65
14.28
14.15
13.42
12.22
10.76
9.28
8.05
7.33
7.25
7.76
8.60
9.49
10.20
10.65
10.88
10.96
10.92
10.70
10.23
9.48
8.51
7.42
6.27
5.05
3.69
2.14
0.41
-1.43
-3.22
-4.84
-6.19
-7.24
-8.07
-8.85
-9.81
-11.12
-12.82
-14.65
-16.07
-16.49
-15.40
-12.68
-8.55
-3.56
1.65
6.55
10.77
14.13
16.51
17.80
17.96
17.02
15.12
12.56
9.73
7.03
4.79
3.19
2.22
1.74
1.52
1.35
1.12
0.78
0.38
-0.05
-0.54
-1.13
-1.91
-2.97
-4.35
-6.03
-7.97
-10.04
-12.12
-14.04
-15.71
-17.11
-18.34
-19.56
-20.96
-22.70
-24.80
-27.14
-29.39
-31.09
-31.70
-30.77
-28.10
-23.82
-18.40
-12.51
-6.83
-1.86
2.10
4.95
6.69
7.34
7.00
5.83
4.12
2.21
0.44
-1.00
-2.03
-2.69
-3.08
-3.29
-3.36
-3.30
-3.06
-2.59
-1.84
-0.81
0.43
1.64
2.55
2.93
2.68
1.90
0.82
-0.29
-1.27
-2.10
-2.89
-3.78
-4.92
-6.46
-8.49
-11.06
-14.05
-17.11
-19.68
-21.06
-20.71
-18.39
-14.32
-9.08
-3.44
1.92
6.51
10.10
12.63
14.15
14.68
14.27
13.01
11.07
8.71
6.26
4.03
2.26
1.03
0.28
-0.12
-0.35
-0.55
-0.75
-0.97
-1.20
-1.48
-1.90
-2.58
-3.58
-4.89
-6.48
-8.30
-10.32
-12.54
-14.91
-17.31
-19.55
-21.44
-22.92
-24.11
-25.26
-26.69
-28.59
-30.98
-33.66
-36.28
-38.31
-39.04
-37.71
-33.60
-26.33
-16.10
-3.73
9.47
22.14
33.20
42.09
48.66
53.04
55.32
55.53
53.71
50.08
45.07
39.30
33.36
27.73
22.72
18.45
14.88
11.92
9.35
6.97
4.62
2.23
-0.12
-2.28
-4.10
-5.62
-7.00
-8.48
-10.21
-12.15
-14.08
-15.65
-16.58
-16.79
-16.57
-16.42
-16.82
-17.99
-19.78
-21.76
-23.38
-24.12
-23.75
-22.50
-20.91
-19.36
-17.85
-15.99
-13.22
-9.13
-3.68
2.47
7.99
11.36
11.72
9.33
5.37
1.39
-1.16
-1.24
1.74
7.75
16.19
25.86
34.73
39.76
37.54
25.70
5.32
-17.47
-34.43
-40.37
-35.65
-24.66
-12.85
-4.00
0.98
3.49
5.55
8.18
11.06
13.65
16.26
20.08
26.38
35.32
45.01
51.91
52.14
43.45
26.89
6.57
-12.15
-25.07
-30.71
-30.66
-28.23
-26.83
-28.54
-33.48
-40.25
-46.52
-50.29
-48.87
-40.46
-24.67
-3.26
19.95
40.09
52.87
56.21
50.90
40.09
27.63
16.54
8.12
2.06
-2.57
-6.43
-9.46
-11.15
-11.12
-9.68
-7.66
-6.02
-5.27
-5.20
-5.12
-4.23
-2.11
1.12
4.89
8.59
11.91
14.99
18.25
22.25
27.07
32.44
37.91
43.04
47.61
51.56
54.92
57.57
59.18
59.20
57.09
52.58
45.82
37.41
28.23
19.17
10.78
3.13
-4.04
-11.14
-18.35
-25.57
-32.49
-38.75
-44.23
-49.01
-53.24
-57.00
-59.99
-61.68
-61.53
-59.26
-55.14
-49.99
-44.92
-41.11
-39.58
-41.10
-46.08
-54.36
-64.74
-74.79
-81.15
-80.63
-71.67
-55.25
-34.92
-15.38
-0.57
7.91
11.23
12.33
14.36
19.25
27.12
36.66
45.91
53.00
56.53
55.63
49.97
39.83
26.14
10.32
-5.90
-20.90
-33.46
-43.12
-50.16
-55.33
-59.39
-62.41
-63.36
-60.12
-50.24
-32.02
-5.67
26.19
58.86
86.74
104.81
110.02
101.98
82.87
56.67
28.03
1.35
-20.01
-34.00
-39.94
-38.46
-31.31
-21.06
-10.54
-2.19
2.62
3.91
2.98
1.78
1.99
4.29
8.12
12.01
14.21
13.55
9.87
4.14
-2.15
-7.53
-10.88
-11.44
-8.43
-0.94
11.66
28.93
48.79
67.87
82.95
92.57
97.85
101.85
107.56
116.00
125.39
132.22
133.20
127.07
114.93
99.23
82.15
64.61
46.57
27.98
9.82
-5.91
-17.19
-23.34
-25.68
-27.05
-30.38
-37.09
-46.26
-54.95
-59.59
-57.42
-47.46
-30.55
-8.81
15.10
38.41
58.43
72.85
80.01
79.47
72.10
59.75
44.33
27.09
8.48
-11.38
-31.73
-50.81
-66.20
-75.96
-79.66
-78.69
-75.45
-72.01
-68.92
-65.09
-58.56
-47.77
-32.47
-13.67
6.97
28.01
48.59
68.29
86.65
102.82
115.73
124.51
128.81
129.02
126.09
121.24
115.69
110.39
105.64
100.94
95.07
86.55
74.38
58.47
39.72
19.68
0.01
-17.78
-32.57
-43.70
-51.45
-57.58
-65.10
-77.53
-97.30
-124.24
-155.20
-185.16
-209.09
-223.55
-227.51
-222.10
-210.22
-195.95
-184.02
-178.82
-182.86
-195.59
-213.42
-231.08
-243.71
-248.47
-244.55
-232.09
-211.18
-181.85
-145.11
-104.18
-64.65
-32.92
-14.10
-10.19
-20.03
-40.48
-67.68
-98.03
-128.24
-154.96
-174.59
-183.85
-180.28
-162.58
-130.67
-85.75
-30.71
29.54
88.48
139.21
176.44
198.38
207.22
208.06
206.79
207.77
212.68
220.70
229.63
237.03
240.97
240.15
233.78
221.66
204.45
183.88
162.49
142.79
126.43
113.70
103.55
94.28
84.54
74.04
63.68
55.20
50.27
49.88
53.88
61.17
70.09
78.91
86.28
91.35
94.25
96.12
98.97
105.14
115.81
129.58
142.00
146.71
138.20
114.81
80.05
41.28
6.43
-19.52
-36.08
-46.14
-53.28
-59.62
-65.69
-71.87
-79.92
-92.81
-112.73
-138.69
-165.80
-186.72
-194.75
-186.36
-162.02
-125.29
-81.10
-34.92
7.95
42.41
64.42
72.43
68.58
58.51
49.58
47.99
56.29
72.56
91.49
106.61
112.89
108.17
93.45
72.11
48.48
26.43
8.45
-4.96
-15.29
-25.44
-38.54
-56.37
-78.28
-101.08
-120.27
-132.07
-135.26
-131.65
-125.05
-119.29
-116.47
-116.65
-118.66
-121.43
-124.82
-129.56
-136.51
-145.92
-157.13
-168.67
-178.55
-184.39
-183.61
-174.04
-154.97
-127.91
-96.67
-66.28
-40.95
-22.41
-9.24
2.09
15.21
32.04
51.97
72.44
90.37
103.66
111.77
115.29
115.13
111.87
105.91
98.02
89.70
82.83
78.85
77.92
78.94
80.29
81.03
81.55
83.08
86.30
90.03
91.01
84.96
68.72
42.16
8.86
-24.75
-51.76
-67.29
-70.28
-63.61
-52.71
-43.15
-38.61
-40.16
-47.01
-58.04
-73.02
-92.60
-117.11
-145.13
-172.92
-195.31
-207.68
-207.76
-196.31
-176.18
-150.56
-121.54
-90.04
-56.07
-19.56
18.97
58.13
95.63
129.02
156.41
177.20
192.28
204.11
215.96
230.40
247.45
263.37
271.85
266.30
242.85
201.55
146.87
86.34
28.31
-20.46
-57.35
-82.89
-99.83
-111.52
-122.49
-135.68
-150.90
-164.29
-169.52
-162.40
-140.73
-105.55
-60.88
-17.33
12.85
20.14
2.06
-35.70
-84.15
-130.53
-162.14
-169.43
-154.93
-127.69
-98.33
-73.93
-57.23
-51.79
-58.12
-73.41
-90.70
-108.65
-126.78
-144.38
-159.34
-144.06
-89.22
-9.49
52.99
97.15
127.65
153.29
174.44
188.72
193.10
182.27
156.54
123.54
96.97
82.61
79.71
81.65
80.40
69.47
43.35
2.97
-43.88
-83.78
-107.92
-110.93
-91.57
-51.93
2.29
60.83
113.53
153.44
178.69
188.09
182.72
165.55
141.39
115.56
91.69
72.26
58.49
50.81
47.07
44.58
41.21
36.45
31.19
26.79
24.73
25.89
29.97
34.57
36.20
31.64
19.38
0.21
-23.20
-47.57
-70.60
-91.92
-113.03
-136.13
-162.68
-192.04
-221.21
-245.29
-258.96
-257.97
-240.69
-208.59
-165.96
-118.66
-72.47
-31.76
1.18
26.02
43.71
55.77
63.75
69.08
72.90
76.05
78.87
81.23
82.74
83.01
81.94
79.77
77.02
74.23
71.83
70.06
68.98
68.53
68.59
69.12
70.32
72.55
76.24
81.47
87.79
94.24
99.78
103.82
106.51
108.55
110.79
113.84
118.04
123.66
130.81
139.12
147.14
152.14
150.76
140.43
120.83
94.33
65.10
37.07
12.23
-9.83
-31.04
-52.97
-75.40
-96.13
-111.95
-120.08
-119.33
-110.30
-94.95
-75.85
-55.55
-36.19
-19.37
-6.14
2.86
7.04
5.55
-2.84
-19.36
-44.59
-78.04
-118.13
-162.71
-209.75
-257.56
-304.31
-347.24
-382.07
-403.59
-407.14
-390.58
-355.41
-306.54
-250.50
-193.16
-137.79
-84.55
-31.43
23.58
80.47
136.21
185.43
222.29
242.96
246.98
237.32
218.86
196.45
173.35
151.01
129.84
110.30
93.50
80.73
72.62
68.41
66.09
63.29
58.42
51.34
43.31
36.44
32.65
32.82
36.41
41.68
46.37
48.64
47.79
44.39
39.99
36.17
33.83
32.83
32.26
31.14
29.08
26.60
24.65
23.95
24.41
25.07
24.49
21.33
14.66
4.01
-10.87
-30.09
-53.31
-79.39
-106.15
-130.70
-150.20
-162.64
-167.18
-164.09
-154.39
-139.52
-121.35
-102.13
-84.22
-69.50
-58.66
-50.94
-44.56
-37.50
-28.35
-16.55
-2.01
15.39
35.90
59.36
84.51
108.68
128.43
140.76
144.36
140.06
130.33
118.12
105.84
94.76
85.37
77.73
71.96
68.12
65.96
64.72
63.23
60.30
55.19
47.91
39.04
29.49
20.24
12.18
6.10
2.62
2.00
4.02
8.01
13.00
18.01
22.31
25.35
26.69
25.91
22.74
17.31
10.38
3.21
-2.83
-6.90
-9.06
-10.38
-12.42
-16.62
-23.58
-32.88
-43.27
-53.17
-61.35
-67.19
-70.77
-72.43
-72.32
-70.08
-64.94
-56.25
-44.00
-29.27
-14.08
-0.74
9.13
15.26
18.84
22.27
28.23
38.82
54.59
74.26
94.69
111.51
119.88
115.68
97.13
66.09
28.35
-7.91
-34.65
-46.63
-42.86
-26.80
-4.67
17.09
33.90
43.39
44.44
36.16
17.92
-9.31
-42.85
-78.80
-112.89
-141.42
-162.08
-174.65
-180.43
-181.11
-176.98
-168.31
-156.74
-144.54
-132.88
-120.60
-105.68
-86.69
-63.78
-38.25
-15.01
-2.40
-7.97
-32.94
-69.32
-104.09
-124.27
-121.08
-90.56
-36.48
30.18
96.68
154.15
199.67
230.38
241.49
215.20
148.50
63.04
-8.85
-45.30
-42.44
-7.24
47.16
104.58
152.03
178.20
177.51
148.50
94.36
15.69
-67.56
-131.75
-165.38
-171.94
-160.26
-138.24
-112.15
-86.30
-62.59
-39.43
-18.98
-5.47
-1.35
-4.62
-10.58
-14.95
-14.84
-12.87
-8.71
-3.90
-0.74
0.09
0.68
4.20
12.21
23.84
36.55
48.93
59.18
66.35
71.12
75.24
80.04
85.35
89.96
92.90
94.87
96.07
95.76
92.24
83.62
69.08
49.89
29.49
12.25
1.95
-0.53
2.84
8.62
13.77
16.91
18.31
19.00
19.61
20.06
19.37
16.40
10.50
1.70
-9.51
-22.57
-37.14
-53.29
-71.16
-90.80
-111.93
-133.73
-154.93
-173.93
-189.22
-199.78
-205.46
-207.26
-207.17
-207.53
-210.13
-215.16
-220.74
-223.24
-218.43
-202.90
-175.17
-136.16
-88.89
-37.81
12.13
56.27
90.97
114.19
125.77
127.22
121.25
110.95
99.03
87.45
77.45
69.97
65.53
64.11
65.05
67.18
69.15
69.98
69.37
67.80
66.28
65.69
66.05
66.52
65.80
62.85
57.51
50.81
44.81
42.37
45.70
55.35
70.04
87.30
104.35
119.03
130.27
138.21
144.96
152.39
161.05
170.21
178.95
186.69
192.94
196.70
196.21
191.37
181.13
163.24
135.73
99.48
58.92
20.84
-7.58
-20.47
-10.75
23.96
79.30
145.49
211.44
267.25
305.01
319.25
307.94
278.42
240.85
204.32
175.37
159.04
157.90
170.37
190.65
180.88
122.02
26.07
-74.96
-156.49
-211.43
-244.13
-262.40
-272.72
-279.33
-278.12
-265.20
-242.04
-215.44
-192.82
-179.01
-175.59
-181.70
-193.67
-203.82
-206.16
-199.59
-187.55
-174.50
-163.48
-155.52
-150.04
-146.24
-140.80
-131.34
-118.47
-105.11
-94.06
-86.70
-83.13
-78.71
-71.95
-63.68
-56.48
-52.26
-50.53
-48.84
-44.70
-36.90
-26.73
-17.67
-12.33
-11.56
-15.14
-22.39
-31.98
-41.48
-46.47
-42.14
-25.67
1.15
33.79
63.60
81.34
81.86
66.96
45.58
28.45
22.88
30.10
45.88
63.29
76.80
84.52
84.17
79.08
72.49
65.28
56.81
46.74
35.96
26.30
19.33
15.24
13.34
11.37
6.87
-1.21
-11.98
-23.05
-31.35
-34.44
-31.72
-23.82
-13.65
-5.04
-1.01
-2.53
-8.34
-15.51
-20.95
-22.66
-20.03
-14.22
-7.22
-0.77
4.27
7.84
10.21
11.51
11.62
10.66
8.83
6.51
4.19
2.54
1.76
1.91
2.51
2.68
1.74
-0.58
-4.15
-8.31
-11.54
-11.98
-8.37
-0.89
8.86
18.60
26.23
30.04
29.13
24.42
18.15
12.94
10.81
12.87
19.36
29.56
40.93
49.27
50.69
42.57
24.40
-2.33
-34.48
-68.26
-96.36
-110.99
-111.63
-105.11
-98.39
-93.25
-87.90
-80.58
-71.86
-64.64
-63.18
-72.27
-89.82
-109.95
-124.58
-126.54
-112.18
-82.37
-41.77
2.64
44.64
82.32
115.52
145.49
174.74
205.99
241.14
280.35
320.98
357.52
383.13
391.06
377.28
341.92
289.33
226.66
161.58
99.60
43.29
-7.15
-52.86
-94.76
-133.50
-170.24
-207.46
-248.59
-296.50
-351.12
-407.52
-456.40
-486.50
-488.88
-460.59
-405.82
-333.66
-253.94
-173.52
-95.24
-19.81
51.30
114.07
162.86
193.42
205.91
205.61
200.73
198.57
202.45
211.16
220.83
228.08
232.21
235.10
239.34
245.80
252.43
255.17
250.19
236.18
215.15
191.49
169.53
151.01
134.12
114.65
88.34
53.41
11.81
-31.50
-70.53
-100.70
-120.44
-131.28
-136.82
-140.84
-145.70
-151.43
-156.09
-156.89
-151.77
-140.74
-125.98
-111.05
-99.27
-92.41
-90.22
-91.09
-93.22
-95.68
-98.54
-102.32
-107.23
-112.61
-117.07
-119.01
-117.24
-111.29
-101.33
-88.02
-72.18
-54.92
-37.64
-22.10
-10.08
-2.86
-0.66
-2.40
-6.02
-9.13
-9.89
-7.58
-2.63
3.78
10.29
15.94
20.36
23.67
26.25
28.46
30.56
32.61
34.47
35.78
36.00
34.46
30.58
24.10
15.33
5.28
-4.46
-12.14
-16.42
-16.79
-13.73
-8.36
-1.86
4.96
11.86
18.93
26.23
33.55
40.34
45.95
49.78
51.40
50.56
47.27
41.91
35.49
29.53
25.68
24.95
27.20
31.02
34.37
35.50
33.81
29.92
25.24
21.09
18.09
16.00
14.14
11.82
8.65
4.36
-1.40
-9.09
-18.93
-30.33
-41.75
-51.03
-56.20
-56.29
-51.53
-42.87
-31.34
-17.51
-1.67
15.67
33.33
49.45
62.10
69.92
72.47
70.06
63.27
52.52
37.98
19.78
-1.71
-25.80
-51.39
-77.13
-101.43
-122.68
-139.42
-150.64
-155.95
-155.43
-149.44
-138.53
-123.39
-105.03
-84.94
-64.95
-46.90
-32.15
-21.12
-13.36
-7.85
-3.58
-0.09
2.28
2.61
0.02
-5.58
-12.97
-19.81
-23.56
-22.76
-17.92
-11.30
-5.76
-3.19
-3.77
-6.15
-8.67
-10.47
-11.88
-13.88
-17.07
-20.99
-24.39
-26.04
-25.67
-24.08
-22.51
-21.47
-20.17
-16.67
-8.79
4.91
24.44
48.38
74.20
98.80
119.18
133.01
139.12
137.84
130.86
120.80
110.46
101.98
96.38
93.54
92.50
91.97
90.67
87.52
81.67
72.59
60.23
45.21
28.87
12.99
-0.65
-10.86
-17.46
-21.34
-24.15
-27.57
-32.76
-39.96
-48.59
-57.65
-66.12
-73.26
-78.78
-82.72
-85.50
-87.84
-90.78
-95.42
-102.53
-111.95
-122.26
-130.96
-135.16
-132.71
-123.14
-107.92
-89.80
-71.58
-54.97
-40.16
-26.35
-12.70
0.80
13.25
23.48
30.84
35.73
39.30
42.74
46.54
50.27
52.97
53.90
53.06
51.29
49.70
49.10
49.51
50.27
50.41
49.26
46.81
43.69
40.95
39.60
40.22
42.81
46.77
51.12
54.78
56.87
56.82
54.56
50.46
45.27
39.92
35.24
31.76
29.59
28.47
27.95
27.63
27.24
26.69
25.92
24.86
23.41
21.59
19.57
17.69
16.18
15.00
13.75
11.83
8.77
4.55
-0.32
-5.03
-8.84
-11.43
-13.00
-14.08
-15.20
-16.60
-18.22
-19.88
-21.46
-23.08
-25.04
-27.59
-30.71
-34.05
-37.03
-39.11
-39.96
-39.56
-38.08
-35.78
-32.82
-29.31
-25.32
-20.91
-16.25
-11.52
-6.99
-2.95
0.44
3.13
5.28
7.13
8.92
10.70
12.30
13.44
13.89
13.66
13.06
12.52
12.40
12.82
13.57
14.36
14.90
15.10
14.97
14.61
14.06
13.25
12.11
10.58
8.70
6.64
4.58
2.69
1.00
-0.54
-2.01
-3.45
-4.85
-6.11
-7.11
-7.80
-8.21
-8.46
-8.67
-8.89
-9.03
-8.98
-8.58
-7.77
-6.62
-5.25
-3.73
-2.02
-0.02
2.38
5.12
7.96
10.56
12.64
14.17
15.39
16.63
18.12
19.80
21.36
22.52
23.22
23.71
24.40
25.55
27.03
28.31
28.66
27.51
24.72
20.67
16.10
11.77
8.30
6.04
5.08
5.29
6.20
6.88
5.99
2.09
-5.56
-16.47
-28.52
-38.56
-43.58
-42.10
-34.92
-24.88
-15.61
-9.91
-8.64
-10.57
-13.19
-14.01
-11.59
-5.98
1.54
9.07
14.67
16.83
14.89
9.33
1.81
-5.19
-9.03
-7.94
-1.71
8.16
18.96
27.86
32.97
33.97
32.24
30.26
30.74
35.62
45.41
59.02
73.98
87.21
95.97
98.63
95.06
86.42
74.55
61.31
48.07
35.71
24.76
15.66
8.77
4.14
1.29
-0.86
-3.64
-7.92
-13.59
-19.34
-23.18
-23.45
-19.65
-12.82
-5.08
1.21
4.40
3.90
0.31
-4.94
-9.98
-12.87
-12.14
-7.21
1.28
11.56
21.33
28.67
32.71
33.82
33.11
31.65
29.86
27.43
23.84
18.88
13.00
7.12
2.04
-1.94
-5.30
-9.04
-14.20
-21.35
-30.40
-40.65
-51.14
-61.05
-69.92
-77.66
-84.29
-89.57
-92.92
-93.46
-90.48
-83.87
-74.26
-62.92
-51.20
-40.02
-29.65
-19.92
-10.81
-2.90
2.49
3.85
0.25
-7.95
-18.98
-30.19
-38.99
-43.72
-43.99
-40.53
-34.59
-27.39
-19.80
-12.30
-5.16
1.46
7.48
12.91
17.83
22.36
26.56
30.41
33.85
36.91
39.73
42.55
45.69
49.54
54.46
60.64
67.80
74.83
79.65
79.67
72.71
58.19
37.73
14.78
-6.76
-24.14
-36.81
-46.35
-55.39
-66.43
-81.11
-100.24
-123.89
-151.19
-179.55
-204.26
-218.96
-217.64
-197.19
-159.44
-111.11
-61.57
-19.37
10.63
28.30
36.99
41.16
44.13
47.13
49.80
51.36
51.60
51.18
51.11
52.05
53.86
55.67
56.50
55.77
53.59
50.67
47.86
45.76
44.49
43.87
43.63
43.75
44.38
45.64
47.40
49.02
49.54
48.00
43.87
37.27
28.92
19.94
11.39
4.07
-1.74
-6.22
-9.96
-13.77
-18.36
-24.04
-30.51
-36.84
-41.79
-44.25
-43.62
-39.88
-33.51
-25.41
-16.73
-8.87
-3.27
-1.17
-3.16
-8.87
-17.04
-25.88
-33.70
-39.45
-42.86
-44.31
-44.39
-43.60
-42.19
-40.17
-37.57
-34.47
-31.18
-28.06
-25.53
-23.87
-23.24
-23.58
-24.76
-26.54
-28.66
-30.77
-32.51
-33.57
-33.81
-33.40
-32.73
-32.32
-32.61
-33.74
-35.55
-37.59
-39.21
-39.79
-38.79
-35.97
-31.38
-25.40
-18.42
-10.74
-2.39
6.89
17.28
28.66
40.35
51.21
59.99
65.72
68.09
67.56
65.36
63.13
62.61
65.04
70.81
79.14
88.21
95.65
99.35
98.10
91.92
81.90
69.68
56.92
44.91
34.47
26.03
19.72
15.47
13.02
12.11
12.44
13.74
15.63
17.55
18.82
18.81
17.24
14.26
10.29
5.72
0.72
-4.74
-10.56
-16.21
-20.83
-23.53
-23.95
-22.52
-20.28
-18.53
-18.36
-20.43
-25.01
-31.96
-40.65
-49.82
-57.62
-61.94
-61.12
-54.57
-43.11
-28.74
-13.81
-0.34
10.54
18.59
24.05
27.30
28.53
27.86
25.52
22.02
18.06
14.33
11.17
8.34
5.27
1.42
-3.30
-8.39
-13.06
-16.69
-19.37
-21.95
-25.72
-31.82
-40.72
-51.90
-63.95
-74.93
-82.86
-86.20
-84.13
-76.81
-65.38
-51.78
-38.24
-26.62
-17.86
-11.67
-6.91
-2.17
3.41
9.83
16.41
22.29
27.01
30.63
33.57
36.11
38.13
39.16
38.79
37.07
34.59
32.31
30.99
30.90
31.68
32.64
33.12
32.83
31.96
30.94
30.20
29.83
29.53
28.74
26.92
23.87
19.85
15.46
11.29
7.75
4.88
2.49
0.39
-1.44
-2.85
-3.63
-3.64
-2.96
-1.82
-0.55
0.51
1.13
1.25
0.99
0.60
0.40
0.56
1.02
1.55
1.84
1.69
1.13
0.42
-0.12
-0.31
-0.12
0.27
0.68
0.97
1.15
1.27
1.41
1.66
2.04
2.57
3.22
3.90
4.38
4.34
3.52
1.84
-0.52
-3.20
-5.72
-7.66
-8.82
-9.17
-8.84
-8.00
-6.82
-5.41
-3.85
-2.21
-0.59
0.87
1.99
2.59
2.58
2.03
1.24
0.61
0.56
1.29
2.73
4.56
6.34
7.80
8.85
9.72
10.69
11.93
13.33
14.57
15.31
15.42
15.14
14.93
15.28
16.41
18.17
20.08
21.56
22.24
22.12
21.59
21.29
21.87
23.76
27.15
31.83
37.29
42.52
46.17
46.75
43.13
35.12
23.83
11.62
1.50
-3.77
-2.58
5.04
17.59
32.63
47.48
59.76
67.54
69.30
64.04
51.72
33.72
13.20
-5.53
-18.17
-22.15
-17.68
-7.89
2.32
8.14
6.42
-3.57
-20.36
-41.19
-62.89
-82.47
-97.52
-106.48
-109.00
-106.11
-100.08
-93.66
-89.15
-87.65
-88.79
-91.26
-93.56
-94.70
-94.52
-93.50
-92.39
-91.79
-92.01
-93.09
-94.92
-97.23
-99.47
-100.77
-100.03
-96.33
-89.35
-79.55
-67.89
-55.24
-41.96
-27.83
-12.34
4.64
22.52
40.28
57.10
73.10
89.43
107.57
128.18
150.22
171.06
187.47
197.11
199.60
196.74
191.59
187.11
184.94
185.06
186.09
186.42
184.79
180.57
173.14
161.22
142.82
116.05
80.47
38.36
-5.19
-43.65
-71.45
-86.11
-89.12
-85.05
-79.42
-76.46
-77.79
-82.57
-88.56
-93.62
-96.51
-96.95
-95.16
-91.29
-85.36
-77.49
-68.47
-59.80
-53.46
-50.93
-52.53
-56.91
-61.54
-63.66
-61.30
-54.05
-43.05
-30.49
-18.89
-10.40
-6.43
-7.46
-13.01
-21.88
-32.49
-43.44
-53.89
-63.82
-73.75
-84.26
-95.27
-105.74
-113.80
-117.44
-115.37
-107.74
-96.19
-83.14
-70.85
-60.39
-51.39
-42.52
-32.52
-21.12
-9.39
0.64
6.81
7.60
2.63
-7.32
-20.52
-34.54
-46.65
-54.32
-55.86
-50.95
-40.78
-27.98
-15.89
-7.25
-3.18
-2.91
-4.52
-6.09
-6.81
-7.07
-8.21
-11.50
-17.13
-23.90
-29.70
-32.57
-31.52
-26.84
-19.34
-10.36
-1.39
6.32
12.01
15.35
16.18
14.49
10.32
5.11
-0.12
-5.13
-9.92
-14.06
-16.87
-18.15
-18.61
-19.70
-20.20
-19.22
-16.54
-11.87
-4.09
8.05
24.74
44.84
66.61
92.79
125.20
163.17
204.35
246.64
288.29
326.95
359.30
381.57
395.70
402.44
400.30
388.03
367.89
345.37
326.52
315.58
280.78
211.03
120.19
32.91
-36.18
-84.88
-116.65
-136.32
-148.67
-157.93
-162.12
-160.80
-156.71
-153.73
-153.45
-154.96
-156.47
-156.89
-156.33
-151.46
-141.06
-126.75
-111.43
-97.02
-84.27
-73.60
-65.81
-61.55
-58.18
-53.51
-47.07
-39.58
-31.87
-24.71
-18.88
-15.36
-14.74
-15.52
-16.28
-16.43
-16.04
-15.23
-14.88
-15.06
-15.52
-16.46
-16.76
-15.47
-12.69
-9.23
-6.08
-3.90
-2.81
-2.72
-3.52
-5.12
-7.03
-9.61
-12.95
-16.73
-20.48
-23.53
-25.43
-25.99
-25.17
-23.20
-20.48
-17.54
-14.74
-12.28
-10.20
-8.46
-7.07
-6.03
-5.40
-5.38
-6.02
-7.24
-8.92
-10.84
-12.84
-14.79
-16.59
-18.21
-19.71
-21.16
-22.64
-24.26
-26.14
-28.37
-30.92
-33.49
-35.50
-36.23
-34.96
-31.24
-25.11
-17.10
-8.07
1.09
9.68
17.28
23.69
28.81
32.52
34.70
35.27
34.30
32.13
29.30
26.43
24.06
22.49
21.76
21.64
21.79
21.87
21.66
21.09
20.27
19.42
18.75
18.36
18.17
17.91
17.18
15.67
13.24
10.03
6.48
3.19
0.84
0.01
1.01
3.66
7.26
10.57
12.18
10.93
6.44
-0.63
-8.73
-15.86
-20.36
-21.43
-19.30
-14.99
-9.76
-4.53
0.30
4.74
8.92
12.79
16.00
18.12
18.89
18.33
16.76
14.55
11.95
9.01
5.66
1.95
-1.85
-5.25
-7.70
-8.79
-8.50
-7.08
-5.04
-2.82
-0.68
1.33
3.31
5.36
7.43
9.28
10.59
11.07
10.56
9.11
6.95
4.35
1.62
-1.11
-3.78
-6.51
-9.52
-13.02
-17.10
-21.62
-26.09
-29.81
-31.99
-32.01
-29.64
-25.11
-19.03
-12.13
-5.09
1.60
7.58
12.59
16.36
18.70
19.51
18.94
17.33
15.13
12.74
10.45
8.40
6.66
5.27
4.27
3.68
3.43
3.41
3.50
3.61
3.69
3.69
3.52
3.02
2.07
0.65
-1.14
-3.07
-4.94
-6.63
-8.15
-9.57
-11.03
-12.64
-14.47
-16.55
-18.78
-20.91
-22.44
-22.78
-21.41
-18.06
-12.89
-6.43
0.57
7.37
13.38
18.25
21.86
24.17
25.22
25.07
23.82
21.73
19.17
16.56
14.33
12.74
11.80
11.31
10.96
10.49
9.83
9.10
8.51
8.26
8.30
8.43
8.29
7.58
6.18
4.20
1.92
-0.32
-2.25
-3.74
-4.78
-5.48
-6.02
-6.51
-6.98
-7.32
-7.24
-6.24
-3.84
0.38
6.44
13.98
22.28
30.40
37.36
42.37
45.05
45.40
43.75
40.59
36.49
32.07
27.86
24.20
21.21
18.80
16.75
14.73
12.39
9.57
6.67
4.22
2.52
1.50
0.80
0.06
-1.03
-2.75
-5.22
-7.72
-9.58
-10.50
-10.73
-10.69
-10.60
-10.57
-10.94
-11.91
-12.54
-11.81
-9.22
-4.90
0.83
7.88
16.19
25.25
34.63
45.37
58.34
73.62
90.25
106.86
122.42
136.05
146.68
144.19
122.94
85.29
41.39
2.34
-26.02
-43.54
-51.63
-55.53
-58.48
-60.32
-60.06
-57.43
-53.60
-51.26
-51.91
-55.79
-62.35
-69.99
-76.01
-78.47
-76.96
-72.54
-66.77
-60.60
-54.35
-48.24
-42.28
-36.02
-29.40
-22.65
-16.22
-10.39
-4.88
0.75
6.64
12.61
18.12
21.91
22.43
18.20
8.34
-7.08
-27.20
-50.56
-75.31
-99.34
-120.31
-135.27
-141.13
-135.69
-118.75
-92.73
-62.17
-32.41
-8.08
8.29
17.29
21.85
25.72
31.73
41.01
53.32
67.61
82.68
94.52
99.06
94.24
81.66
65.15
48.02
32.08
17.85
5.31
-5.53
-13.91
-18.68
-19.07
-15.44
-9.20
-2.18
3.78
7.00
6.09
0.82
-7.55
-16.30
-21.71
-20.67
-11.23
6.23
28.78
51.30
68.62
77.83
78.84
73.54
64.34
53.16
41.00
28.21
14.91
1.50
-11.08
-21.65
-28.75
-30.97
-27.71
-19.50
-8.22
3.53
13.48
20.68
25.57
29.31
32.77
35.58
36.81
35.69
32.45
28.41
25.43
24.80
26.63
29.89
32.61
33.20
31.01
26.31
20.03
13.21
6.52
-0.18
-4.58
-6.16
-5.23
-2.67
0.56
4.00
8.02
13.60
21.50
31.33
40.51
45.30
42.06
28.88
6.52
-21.65
-50.82
-76.21
-94.24
-103.53
-104.18
-97.32
-84.46
-67.24
-47.51
-27.69
-11.00
-1.06
-1.30
-13.39
-36.40
-66.82
-99.63
-129.80
-153.30
-167.40
-170.10
-159.92
-136.24
-100.45
-56.93
-12.75
24.17
47.62
55.04
48.07
31.19
9.83
-11.33
-29.06
-41.48
-47.53
-46.67
-38.96
-25.04
-6.13
16.31
40.64
65.07
87.46
105.40
116.50
119.07
112.82
98.98
80.09
59.16
38.79
20.62
5.34
-6.92
-15.98
-21.42
-22.71
-19.72
-13.20
-4.99
2.43
6.64
5.97
-0.08
-10.74
-24.19
-37.75
-47.98
-51.08
-43.63
-23.84
7.24
45.33
83.88
116.19
137.75
147.57
147.84
142.05
132.69
119.82
101.22
74.30
38.28
-4.14
-46.68
-81.17
-100.15
-99.55
-80.07
-46.79
-7.07
32.13
66.38
94.41
117.06
135.58
150.22
159.89
162.90
158.01
145.06
124.76
98.05
65.68
28.61
-11.12
-49.77
-82.32
-103.94
-111.88
-106.63
-91.94
-73.36
-56.38
-44.72
-39.77
-40.88
-46.28
-53.98
-62.32
-70.15
-76.88
-82.32
-86.68
-90.36
-93.59
-96.23
-97.76
-97.52
-95.00
-90.25
-83.75
-76.22
-68.25
-60.04
-51.54
-42.86
-34.59
-27.78
-23.53
-22.34
-23.59
-25.65
-26.41
-24.23
-18.47
-9.57
1.47
13.68
26.44
39.31
51.67
62.34
69.67
72.13
69.11
61.33
50.90
40.51
32.59
28.39
27.69
29.01
30.20
29.26
24.84
16.57
5.06
-8.22
-21.38
-32.41
-39.82
-43.00
-42.36
-39.21
-35.20
-31.83
-29.99
-29.96
-31.49
-34.12
-37.42
-41.06
-44.90
-48.80
-52.50
-55.53
-57.25
-57.10
-54.89
-50.97
-46.18
-41.49
-37.44
-33.82
-29.77
-24.22
-16.64
-7.40
2.30
10.96
17.43
21.32
22.97
23.06
22.20
20.67
18.55
15.97
13.31
11.20
10.36
11.25
13.91
17.91
22.54
27.06
30.95
34.02
36.43
38.48
40.33
41.85
42.62
42.12
40.09
36.78
33.01
29.88
28.29
28.53
30.02
31.58
31.86
29.92
25.67
19.83
13.68
8.51
5.20
4.15
5.33
8.61
13.78
20.58
28.41
36.37
43.38
48.61
51.75
53.12
53.32
52.82
51.55
49.01
44.59
38.11
30.14
21.84
14.52
9.04
5.45
2.80
-0.52
-6.13
-15.00
-26.84
-39.99
-51.80
-59.49
-61.31
-57.27
-49.31
-40.63
-34.41
-32.55
-34.89
-39.50
-43.63
-44.97
-42.58
-37.01
-29.77
-22.52
-16.26
-11.12
-6.50
-1.56
4.38
11.63
20.03
29.06
38.01
46.18
53.05
58.55
62.95
66.76
70.33
73.53
75.73
75.94
73.22
67.04
57.48
45.12
30.80
15.38
-0.20
-14.96
-27.85
-37.84
-44.31
-47.28
-47.56
-46.42
-45.26
-45.07
-46.27
-48.74
-52.16
-56.26
-60.94
-66.30
-72.49
-79.55
-87.35
-95.38
-102.60
-107.32
-107.44
-101.02
-87.24
-67.10
-43.50
-20.57
-2.46
8.02
10.14
5.34
-3.56
-13.22
-20.60
-23.37
-20.20
-10.90
3.30
19.84
35.20
45.85
49.38
45.23
34.76
20.50
5.26
-8.80
-20.38
-28.97
-34.61
-37.75
-39.34
-40.74
-43.34
-47.90
-54.11
-60.59
-65.62
-68.01
-67.63
-65.42
-62.73
-60.62
-59.47
-59.02
-58.68
-57.76
-55.66
-51.81
-45.88
-37.89
-28.41
-18.51
-9.58
-2.90
0.53
0.16
-4.02
-11.27
-19.92
-27.48
-31.43
-30.50
-25.51
-19.12
-14.37
-12.75
-13.16
-12.54
-8.00
1.23
13.19
24.42
32.26
36.46
39.18
43.21
50.03
58.84
67.41
73.86
78.09
81.81
87.33
95.89
106.75
117.57
125.58
128.79
126.88
120.97
113.02
104.97
98.18
93.20
90.01
88.27
87.57
87.47
87.23
85.57
80.74
70.95
55.06
33.33
7.52
-19.64
-45.30
-67.47
-85.37
-99.16
-109.34
-116.23
-119.84
-120.22
-117.71
-113.11
-107.48
-101.64
-95.64
-88.62
-79.19
-66.29
-50.14
-32.78
-17.56
-7.89
-5.56
-9.74
-17.16
-23.58
-25.62
-22.23
-14.78
-6.07
1.29
5.99
8.23
9.19
10.11
11.79
14.39
17.73
21.53
25.69
30.25
35.29
40.73
46.19
51.05
54.60
56.26
55.81
53.32
49.00
42.95
35.07
25.28
13.84
1.57
-10.15
-19.83
-26.41
-29.61
-29.89
-28.09
-25.02
-21.24
-17.04
-12.74
-8.77
-5.69
-3.97
-3.72
-4.62
-6.01
-7.18
-7.68
-7.44
-6.79
-6.23
-6.24
-7.05
-8.52
-10.22
-11.57
-12.15
-11.82
-10.73
-9.10
-7.04
-4.34
-0.65
4.24
10.14
16.36
21.95
26.05
28.27
28.79
28.21
27.25
26.40
25.90
25.75
25.86
26.19
26.74
27.47
28.24
28.89
29.29
29.47
29.58
29.79
30.14
30.53
30.75
30.63
30.11
29.29
28.28
27.09
25.63
23.81
21.66
19.47
17.66
16.55
16.06
15.72
14.72
12.34
8.30
2.92
-2.99
-8.40
-12.35
-14.21
-13.76
-11.24
-7.34
-2.99
0.69
2.76
2.70
0.63
-2.73
-6.16
-8.45
-8.74
-6.87
-3.43
0.42
3.33
4.18
2.36
-2.03
-8.33
-15.44
-22.19
-27.58
-30.97
-32.24
-31.76
-30.26
-28.62
-27.63
-27.78
-29.13
-31.39
-34.03
-36.48
-38.19
-38.77
-38.02
-35.94
-32.76
-28.88
-24.78
-20.78
-17.02
-13.46
-10.00
-6.66
-3.59
-1.08
0.68
1.73
2.32
2.87
3.65
4.67
5.70
6.41
6.58
6.23
5.59
4.95
4.51
4.31
4.27
4.31
4.39
4.55
4.77
4.82
4.33
2.91
0.36
-3.12
-6.99
-10.62
-13.55
-15.69
-17.28
-18.61
-19.88
-21.05
-21.93
-22.35
-22.29
-21.83
-20.94
-19.49
-17.20
-13.89
-9.69
-5.04
-0.57
3.17
5.89
7.64
8.74
9.55
10.31
11.10
11.81
12.30
12.43
12.13
11.42
10.37
9.08
7.64
6.14
4.60
2.99
1.20
-0.87
-3.31
-6.10
-9.17
-12.43
-15.81
-19.38
-23.19
-27.25
-31.35
-35.09
-37.87
-39.09
-38.23
-34.97
-29.23
-21.23
-11.55
-1.06
9.15
17.98
24.56
28.39
29.50
28.38
25.84
22.79
19.96
17.63
15.65
13.55
10.80
7.18
2.92
-1.38
-5.03
-7.60
-9.16
-10.19
-11.42
-13.42
-16.49
-20.59
-25.46
-30.87
-36.65
-42.77
-49.18
-55.83
-62.70
-69.81
-77.25
-84.87
-91.90
-96.81
-97.38
-91.37
-77.42
-55.75
-28.43
1.06
28.88
51.78
67.91
76.92
79.73
77.95
73.34
67.50
61.61
56.44
52.35
49.40
47.47
46.34
45.77
45.46
45.06
44.22
42.69
40.47
37.88
35.43
33.70
32.98
33.16
33.75
34.10
33.65
32.12
29.56
26.23
22.54
18.98
16.20
15.04
16.40
21.05
29.21
40.36
53.16
65.72
76.07
82.79
85.33
84.06
79.85
73.47
65.14
54.57
41.48
26.32
10.53
-3.75
-14.63
-21.32
-24.52
-25.98
-27.50
-30.04
-33.45
-36.93
-39.81
-42.06
-44.24
-46.92
-50.15
-53.29
-55.48
-56.16
-55.59
-54.77
-54.94
-57.04
-61.22
-66.81
-72.61
-77.24
-79.49
-78.49
-73.77
-65.37
-53.77
-39.86
-24.73
-9.50
4.86
17.66
28.44
36.89
42.84
46.27
47.39
46.69
44.83
42.48
40.18
38.21
36.65
35.43
34.49
33.86
33.61
33.82
34.42
35.11
35.36
34.54
32.18
28.18
22.93
17.21
11.90
7.58
4.30
1.57
-1.39
-5.30
-10.51
-16.86
-23.74
-30.23
-35.27
-37.81
-37.01
-32.39
-24.00
-12.52
0.86
14.66
27.52
38.41
46.80
52.63
56.10
57.50
57.18
55.48
52.86
49.91
47.25
45.46
44.82
45.23
46.24
47.22
47.64
47.26
46.22
44.92
43.73
42.78
41.86
40.58
38.54
35.60
31.95
28.01
24.20
20.80
17.87
15.34
13.13
11.21
9.61
8.18
6.54
4.03
-0.06
-6.10
-13.75
-21.85
-28.65
-32.36
-31.79
-26.62
-17.45
-5.43
8.06
21.62
33.87
43.46
49.33
51.08
49.39
45.89
42.61
41.04
41.49
42.99
43.84
42.40
37.79
30.14
20.58
10.84
2.85
-1.87
-2.66
-0.16
3.82
6.85
6.84
2.88
-4.44
-13.43
-22.13
-29.20
-34.26
-37.62
-39.75
-40.72
-40.15
-37.45
-32.34
-25.28
-17.51
-10.80
-6.79
-6.56
-10.31
-17.59
-27.59
-39.50
-52.62
-66.30
-79.79
-92.23
-102.64
-109.99
-113.26
-111.53
-104.17
-91.27
-73.94
-54.31
-35.11
-18.77
-6.69
1.14
5.98
9.43
12.47
15.16
16.79
16.52
14.01
9.82
5.31
2.29
2.01
4.54
8.77
13.02
15.77
16.17
14.11
9.94
4.33
-2.47
-10.74
-20.92
-33.20
-47.51
-63.74
-81.89
-101.84
-121.94
-140.14
-154.26
-162.04
-161.05
-149.42
-126.66
-94.18
-55.02
-11.03
34.72
77.88
113.93
139.86
154.62
158.77
154.20
143.98
135.29
133.57
140.25
153.38
170.13
188.09
205.43
220.81
233.44
247.29
264.22
282.08
296.34
303.63
303.01
295.29
282.04
238.26
158.53
60.03
-30.86
-98.65
-142.12
-167.02
-180.11
-186.76
-190.38
-188.52
-180.00
-167.10
-154.17
-144.27
-138.27
-135.39
-134.39
-134.22
-130.90
-122.65
-111.05
-99.67
-91.05
-85.79
-83.16
-82.10
-81.72
-79.51
-74.65
-67.80
-61.40
-57.31
-55.82
-55.95
-56.11
-54.75
-49.89
-40.92
-28.88
-15.88
-3.65
6.94
15.56
22.02
26.05
27.74
27.27
24.99
21.42
17.41
13.81
11.06
9.09
7.49
5.84
3.94
1.88
-0.12
-1.87
-3.26
-4.33
-5.12
-5.67
-5.95
-5.92
-5.64
-5.34
-5.30
-5.77
-6.83
-8.31
-9.84
-11.05
-11.63
-11.53
-10.91
-10.18
-9.81
-10.27
-11.82
-14.43
-17.62
-20.55
-22.26
-21.87
-18.98
-13.69
-6.60
1.42
9.44
16.69
22.63
26.92
29.47
30.32
29.66
27.77
24.95
21.48
17.65
13.79
10.25
7.30
5.10
3.57
2.45
1.46
0.47
-0.43
-0.95
-0.74
0.30
2.00
3.89
5.40
6.08
5.76
4.57
2.82
0.84
-1.16
-3.05
-4.84
-6.57
-8.27
-10.03
-11.99
-14.28
-16.90
-19.59
-21.79
-22.76
-21.85
-18.76
-13.66
-7.19
-0.17
6.62
12.64
17.60
21.36
23.79
24.75
24.13
22.01
18.70
14.72
10.60
6.77
3.45
0.67
-1.61
-3.44
-4.75
-5.50
-5.68
-5.41
-4.95
-4.63
-4.75
-5.48
-6.80
-8.55
-10.47
-12.28
-13.81
-15.00
-15.97
-16.91
-18.09
-19.74
-21.96
-24.65
-27.48
-29.84
-31.03
-30.38
-27.50
-22.47
-15.83
-8.48
-1.41
4.63
9.26
12.44
14.38
15.23
15.06
13.85
11.64
8.63
5.17
1.71
-1.43
-4.07
-6.23
-7.99
-9.38
-10.41
-11.08
-11.46
-11.73
-12.15
-12.91
-14.12
-15.69
-17.45
-19.16
-20.61
-21.72
-22.47
-22.99
-23.42
-23.86
-24.21
-24.12
-22.98
-20.19
-15.34
-8.47
-0.12
8.85
17.48
25.02
31.04
35.41
38.17
39.42
39.23
37.69
34.92
31.21
26.92
22.50
18.34
14.72
11.77
9.44
7.58
5.98
4.46
2.88
1.13
-0.83
-2.99
-5.32
-7.75
-10.22
-12.67
-15.11
-17.54
-20.04
-22.71
-25.55
-28.45
-30.96
-32.39
-31.96
-29.03
-23.40
-15.45
-6.06
3.63
12.59
20.05
25.63
29.27
31.00
30.98
29.38
26.43
22.46
17.90
13.18
8.70
4.71
1.37
-1.34
-3.46
-5.10
-6.33
-7.14
-7.51
-7.42
-6.89
-5.99
-4.90
-3.83
-2.96
-2.48
-2.47
-3.03
-4.20
-6.02
-8.43
-11.20
-13.87
-15.82
-16.38
-15.05
-11.75
-6.79
-0.83
5.32
10.92
15.41
18.45
19.89
19.70
18.05
15.25
11.80
8.30
5.26
3.06
1.85
1.57
2.08
3.22
4.81
6.72
8.72
10.59
12.11
13.09
13.45
13.14
12.18
10.58
8.44
5.89
3.12
0.26
-2.68
-5.81
-9.26
-13.00
-16.65
-19.55
-20.93
-20.23
-17.31
-12.54
-6.65
-0.49
5.23
10.00
13.53
15.65
16.26
15.39
13.15
9.88
6.03
2.13
-1.38
-4.20
-6.19
-7.36
-7.77
-7.48
-6.54
-5.02
-3.08
-0.91
1.20
3.01
4.36
5.22
5.69
5.90
5.95
5.86
5.52
4.77
3.44
1.41
-1.34
-4.64
-8.12
-11.26
-13.39
-13.91
-12.38
-8.71
-3.24
3.31
10.05
16.12
20.89
24.03
25.49
25.41
24.05
21.69
18.65
15.26
11.91
8.96
6.66
5.12
4.26
3.87
3.70
3.54
3.30
2.96
2.50
1.91
1.10
-0.01
-1.45
-3.17
-5.03
-6.87
-8.54
-10.00
-11.30
-12.59
-14.05
-15.81
-17.87
-20.02
-21.85
-22.77
-22.23
-19.88
-15.69
-10.05
-3.65
2.72
8.32
12.61
15.35
16.55
16.38
15.08
12.94
10.22
7.25
4.38
1.90
0.03
-1.23
-2.02
-2.59
-3.18
-3.93
-4.84
-5.85
-6.91
-8.03
-9.30
-10.81
-12.58
-14.54
-16.51
-18.31
-19.79
-20.90
-21.67
-22.24
-22.74
-23.19
-23.47
-23.26
-22.08
-19.44
-15.03
-8.85
-1.31
6.85
14.77
21.68
27.11
30.83
32.90
33.40
32.51
30.40
27.35
23.79
20.25
17.26
15.16
13.99
13.46
13.12
12.57
11.60
10.30
8.96
7.85
7.09
6.51
5.77
4.53
2.66
0.29
-2.28
-4.70
-6.76
-8.45
-9.93
-11.44
-13.22
-15.37
-17.85
-20.36
-22.41
-23.35
-22.62
-19.91
-15.29
-9.26
-2.53
4.14
10.13
15.01
18.52
20.51
20.99
20.13
18.30
15.97
13.65
11.69
10.24
9.26
8.60
8.12
7.70
7.25
6.71
6.05
5.33
4.63
4.09
3.77
3.58
3.31
2.67
1.47
-0.32
-2.52
-4.82
-6.94
-8.69
-10.05
-11.15
-12.20
-13.41
-14.93
-16.82
-18.94
-20.98
-22.43
-22.71
-21.30
-17.98
-12.86
-6.45
0.49
7.17
12.91
17.28
20.11
21.45
21.47
20.49
18.82
16.83
14.82
13.03
11.58
10.53
9.81
9.34
9.00
8.70
8.38
8.01
7.59
7.15
6.71
6.23
5.69
4.99
4.08
2.91
1.49
-0.15
-1.92
-3.72
-5.47
-7.13
-8.66
-10.07
-11.36
-12.54
-13.69
-14.90
-16.32
-18.04
-20.04
-22.08
-23.73
-24.43
-23.66
-21.13
-16.90
-11.39
-5.25
0.76
6.07
10.33
13.42
15.39
16.33
16.31
15.38
13.71
11.55
9.31
7.43
6.21
5.76
5.93
6.41
6.86
7.04
6.85
6.33
5.61
4.84
4.10
3.41
2.70
1.89
0.91
-0.28
-1.69
-3.29
-5.03
-6.86
-8.70
-10.43
-11.92
-13.15
-14.19
-15.23
-16.50
-18.09
-19.83
-21.31
-21.97
-21.30
-19.04
-15.25
-10.28
-4.67
1.02
6.26
10.66
13.93
15.92
16.64
16.23
14.96
13.17
11.22
9.40
7.90
6.81
6.12
5.75
5.60
5.58
5.62
5.64
5.57
5.36
4.96
4.35
3.60
2.74
1.83
0.89
-0.12
-1.22
-2.45
-3.80
-5.24
-6.75
-8.28
-9.81
-11.32
-12.82
-14.36
-16.02
-17.88
-19.90
-21.89
-23.48
-24.21
-23.65
-21.54
-17.82
-12.74
-6.76
-0.49
5.41
10.38
14.07
16.39
17.46
17.56
16.93
15.78
14.25
12.49
10.71
9.18
8.15
7.72
7.81
8.19
8.57
8.71
8.52
8.04
7.40
6.74
6.11
5.50
4.79
3.84
2.59
1.06
-0.65
-2.41
-4.09
-5.65
-7.06
-8.34
-9.51
-10.60
-11.75
-13.12
-14.88
-17.05
-19.39
-21.36
-22.25
-21.44
-18.64
-14.03
-8.19
-1.89
4.16
9.42
13.65
16.76
18.79
19.79
19.83
19.03
17.58
15.69
13.63
11.68
10.07
8.94
8.32
8.10
8.14
8.27
8.39
8.45
8.41
8.21
7.80
7.17
6.33
5.35
4.31
3.23
2.08
0.78
-0.70
-2.37
-4.11
-5.82
-7.38
-8.79
-10.11
-11.46
-12.97
-14.68
-16.50
-18.17
-19.30
-19.44
-18.20
-15.41
-11.18
-5.92
-0.22
5.26
10.00
13.68
16.20
17.61
18.01
17.47
16.11
14.12
11.82
9.60
7.84
6.76
6.35
6.39
6.56
6.57
6.32
5.88
5.46
5.26
5.34
5.57
5.66
5.32
4.35
2.78
0.82
-1.20
-3.01
-4.46
-5.53
-6.35
-7.10
-7.99
-9.20
-10.81
-12.77
-14.84
-16.58
-17.46
-17.00
-14.95
-11.39
-6.70
-1.49
3.60
8.01
11.37
13.54
14.55
14.57
13.84
12.63
11.18
9.68
8.33
7.21
6.39
5.85
5.50
5.21
4.87
4.40
3.83
3.25
2.76
2.42
2.19
1.91
1.43
0.59
-0.60
-1.99
-3.41
-4.66
-5.69
-6.57
-7.49
-8.63
-10.12
-11.95
-13.92
-15.70
-16.84
-16.91
-15.56
-12.69
-8.45
-3.25
2.32
7.64
12.17
15.50
17.36
17.67
16.50
14.16
11.10
7.86
4.94
2.68
1.22
0.49
0.36
0.66
1.27
2.13
3.16
4.25
5.31
6.22
6.87
7.12
6.83
5.85
4.10
1.63
-1.41
-4.71
-7.95
-10.82
-13.10
-14.72
-15.76
-16.35
-16.64
-16.70
-16.43
-15.65
-14.13
-11.72
-8.42
-4.44
-0.12
4.12
7.94
11.08
13.37
14.76
15.23
14.86
13.74
12.07
10.06
7.98
6.06
4.48
3.32
2.56
2.10
1.81
1.54
1.18
0.63
-0.14
-1.11
-2.18
-3.22
-4.09
-4.67
-4.96
-5.00
-4.95
-4.95
-5.17
-5.75
-6.80
-8.40
-10.53
-13.09
-15.81
-18.30
-20.05
-20.57
-19.47
-16.60
-12.13
-6.51
-0.46
5.33
10.26
14.00
16.48
17.81
18.20
17.86
16.96
15.65
14.11
12.55
11.16
10.07
9.31
8.78
8.32
7.80
7.17
6.45
5.74
5.12
4.63
4.21
3.76
3.13
2.21
0.91
-0.72
-2.55
-4.37
-5.94
-7.12
-7.94
-8.61
-9.45
-10.72
-12.50
-14.60
-16.59
-17.97
-18.24
-17.11
-14.55
-10.76
-6.13
-1.14
3.70
7.98
11.42
13.85
15.22
15.57
15.00
13.67
11.83
9.75
7.75
6.10
4.96
4.37
4.22
4.33
4.54
4.73
4.85
4.92
4.94
4.84
4.51
3.85
2.81
1.49
0.05
-1.33
-2.52
-3.52
-4.36
-5.16
-6.01
-7.00
-8.16
-9.43
-10.61
-11.36
-11.27
-10.00
-7.41
-3.70
0.70
5.20
9.28
12.54
14.81
16.03
16.20
15.38
13.68
11.31
8.61
5.95
3.71
2.09
1.09
0.58
0.35
0.23
0.18
0.22
0.35
0.50
0.51
0.21
-0.53
-1.70
-3.19
-4.77
-6.25
-7.49
-8.42
-9.12
-9.72
-10.44
-11.50
-13.00
-14.85
-16.67
-17.88
-17.88
-16.24
-12.89
-8.17
-2.72
2.74
7.58
11.43
14.12
15.65
16.05
15.39
13.80
11.48
8.80
6.14
3.89
2.28
1.36
0.99
0.92
0.94
0.88
0.70
0.45
0.19
-0.06
-0.35
-0.84
-1.65
-2.81
-4.22
-5.69
-7.02
-8.15
-9.11
-10.08
-11.17
-12.45
-13.90
-15.47
-17.10
-18.70
-20.00
-20.62
-20.07
-17.96
-14.21
-9.10
-3.23
2.68
8.04
12.43
15.64
17.58
18.24
17.70
16.17
14.00
11.63
9.43
7.64
6.33
5.45
4.91
4.59
4.43
4.34
4.23
4.04
3.80
3.54
3.35
3.20
2.97
2.45
1.44
-0.11
-2.06
-4.13
-5.99
-7.45
-8.47
-9.20
-9.88
-10.75
-11.95
-13.55
-15.48
-17.57
-19.52
-20.92
-21.29
-20.19
-17.42
-13.09
-7.62
-1.74
3.83
8.50
11.91
14.03
14.98
14.97
14.20
12.84
11.03
8.96
6.83
4.86
3.26
2.16
1.56
1.35
1.33
1.26
0.94
0.31
-0.61
-1.75
-2.99
-4.28
-5.60
-6.98
-8.41
-9.82
-11.09
-12.01
-12.44
-12.31
-11.69
-10.74
-9.63
-8.49
-7.34
-6.17
-4.97
-3.83
-2.88
-2.21
-1.75
-1.28
-0.47
0.93
2.97
5.47
8.06
10.40
12.23
13.51
14.30
14.75
14.92
14.82
14.33
13.37
11.89
10.03
8.02
6.20
4.86
4.14
4.03
4.37
4.97
5.68
6.40
7.05
7.54
7.73
7.45
6.63
5.31
3.63
1.85
0.20
-1.20
-2.34
-3.35
-4.41
-5.69
-7.32
-9.33
-11.62
-13.99
-16.16
-17.80
-18.61
-18.33
-16.82
-14.10
-10.39
-6.05
-1.54
2.71
6.41
9.40
11.68
13.30
14.31
14.68
14.36
13.28
11.47
9.08
6.41
3.81
1.61
0.01
-0.95
-1.37
-1.46
-1.40
-1.33
-1.33
-1.47
-1.83
-2.50
-3.54
-4.96
-6.69
-8.58
-10.49
-12.29
-13.89
-15.28
-16.52
-17.66
-18.78
-19.91
-21.06
-22.18
-23.18
-23.90
-24.09
-23.40
-21.44
-17.90
-12.68
-6.05
1.40
8.92
15.78
21.50
25.86
28.85
30.53
30.96
30.19
28.37
25.78
22.78
19.80
17.15
15.00
13.36
12.15
11.27
10.61
10.08
9.56
8.95
8.18
7.22
6.08
4.83
3.51
2.21
0.94
-0.32
-1.64
-3.09
-4.70
-6.38
-8.04
-9.52
-10.77
-11.79
-12.63
-13.39
-14.18
-15.07
-16.12
-17.27
-18.32
-18.92
-18.61
-17.04
-14.05
-9.85
-4.86
0.32
5.16
9.29
12.47
14.62
15.72
15.81
15.01
13.47
11.46
9.28
7.24
5.61
4.56
4.07
4.03
4.17
4.28
4.20
3.90
3.48
3.04
2.66
2.31
1.90
1.28
0.37
-0.81
-2.17
-3.57
-4.89
-6.11
-7.27
-8.41
-9.53
-10.57
-11.48
-12.28
-13.08
-13.95
-14.88
-15.65
-15.88
-15.19
-13.38
-10.51
-6.90
-2.98
0.87
4.39
7.40
9.83
11.53
12.42
12.44
11.71
10.49
9.17
8.11
7.60
7.73
8.49
9.71
11.19
12.69
13.98
14.79
14.94
14.28
12.78
10.53
7.74
4.67
1.55
-1.37
-3.97
-6.17
-7.92
-9.23
-10.17
-10.85
-11.41
-12.01
-12.72
-13.64
-14.77
-16.11
-17.58
-18.96
-19.90
-19.95
-18.74
-16.08
-12.09
-7.19
-1.93
3.12
7.56
11.12
13.64
15.02
15.20
14.22
12.28
9.74
7.10
4.79
3.10
2.07
1.54
1.26
0.98
0.60
0.09
-0.49
-1.12
-1.83
-2.70
-3.74
-4.92
-6.18
-7.46
-8.79
-10.26
-11.95
-13.82
-15.70
-17.35
-18.53
-19.13
-19.16
-18.76
-18.09
-17.29
-16.43
-15.55
-14.61
-13.47
-11.88
-9.54
-6.20
-1.76
3.58
9.39
15.07
20.06
23.92
26.45
27.68
27.75
26.83
25.13
22.86
20.23
17.52
14.99
12.89
11.31
10.23
9.51
8.98
8.56
8.22
7.99
7.90
7.88
7.78
7.43
6.69
5.54
4.04
2.34
0.59
-1.12
-2.73
-4.29
-5.87
-7.55
-9.35
-11.24
-13.13
-14.93
-16.57
-17.96
-18.93
-19.18
-18.34
-16.08
-12.31
-7.29
-1.55
4.20
9.34
13.47
16.45
18.29
19.07
18.83
17.61
15.53
12.85
9.97
7.28
5.11
3.59
2.70
2.25
2.05
1.92
1.74
1.47
1.11
0.72
0.30
-0.14
-0.65
-1.28
-2.10
-3.08
-4.14
-5.20
-6.16
-7.00
-7.78
-8.56
-9.44
-10.51
-11.88
-13.63
-15.71
-17.89
-19.71
-20.61
-20.04
-17.68
-13.54
-8.02
-1.77
4.48
10.06
14.54
17.74
19.69
20.55
20.49
19.61
17.96
15.64
12.91
10.11
7.70
6.04
5.26
5.18
5.43
5.62
5.51
5.07
4.47
3.91
3.49
3.15
2.72
2.04
1.00
-0.37
-1.95
-3.63
-5.31
-6.98
-8.63
-10.27
-11.84
-13.30
-14.64
-15.92
-17.26
-18.70
-20.19
-21.41
-21.89
-21.16
-18.84
-14.89
-9.57
-3.43
2.81
8.50
13.13
16.45
18.39
19.04
18.57
17.18
15.10
12.61
9.99
7.56
5.57
4.19
3.42
3.12
3.09
3.12
3.07
2.92
2.70
2.48
2.29
2.06
1.69
1.09
0.21
-0.96
-2.34
-3.85
-5.42
-6.99
-8.49
-9.82
-10.94
-11.85
-12.67
-13.58
-14.67
-15.86
-16.81
-17.00
-15.91
-13.27
-9.17
-4.06
1.39
6.55
10.95
14.40
16.87
18.41
19.05
18.75
17.48
15.29
12.38
9.08
5.85
3.10
1.14
0.06
-0.26
-0.09
0.27
0.60
0.78
0.82
0.73
0.49
0.03
-0.77
-1.97
-3.55
-5.37
-7.18
-8.72
-9.79
-10.29
-10.28
-9.89
-9.36
-8.96
-8.93
-9.40
-10.32
-11.39
-12.16
-12.08
-10.76
-8.07
-4.21
0.37
5.14
9.68
13.72
17.12
19.82
21.74
22.72
22.65
21.43
19.13
15.92
12.14
8.16
4.39
1.20
-1.17
-2.55
-2.90
-2.27
-0.79
1.28
3.56
5.58
6.83
6.91
5.64
3.13
-0.25
-3.96
-7.37
-9.95
-11.34
-11.44
-10.43
-8.78
-7.15
-6.24
-6.61
-8.49
-11.69
-15.57
-19.18
-21.46
-21.59
-19.18
-14.38
-7.86
-0.64
6.27
12.00
16.10
18.44
19.20
18.71
17.31
15.33
13.05
10.72
8.58
6.80
5.47
4.58
3.99
3.54
3.09
2.60
2.14
1.83
1.79
2.02
2.39
2.66
2.59
1.97
0.77
-0.90
-2.83
-4.76
-6.49
-7.87
-8.90
-9.66
-10.30
-11.00
-11.91
-13.14
-14.73
-16.57
-18.45
-19.99
-20.72
-20.23
-18.25
-14.77
-10.05
-4.56
1.17
6.63
11.43
15.27
17.92
19.28
19.33
18.20
16.17
13.61
10.93
8.46
6.43
4.93
3.94
3.35
3.06
2.95
2.96
3.03
3.11
3.13
2.99
2.60
1.90
0.86
-0.45
-1.92
-3.42
-4.86
-6.17
-7.36
-8.45
-9.51
-10.63
-11.93
-13.50
-15.33
-17.27
-18.93
-19.81
-19.38
-17.33
-13.64
-8.62
-2.83
3.10
8.58
13.18
16.59
18.66
19.33
18.68
16.92
14.39
11.48
8.60
6.06
4.06
2.71
1.97
1.74
1.85
2.14
2.47
2.77
2.99
3.13
3.12
2.88
2.28
1.19
-0.40
-2.39
-4.55
-6.59
-8.27
-9.48
-10.32
-11.07
-12.04
-13.47
-15.39
-17.55
-19.43
-20.39
-19.82
-17.33
-12.90
-6.89
0.03
7.00
13.25
18.21
21.59
23.36
23.64
22.63
20.53
17.59
14.14
10.58
7.35
4.80
3.13
2.31
2.12
2.27
2.51
2.68
2.77
2.83
2.90
2.95
2.86
2.48
1.64
0.31
-1.47
-3.52
-5.66
-7.71
-9.56
-11.20
-12.67
-14.05
-15.41
-16.81
-18.27
-19.74
-21.10
-22.07
-22.28
-21.31
-18.83
-14.69
-9.07
-2.44
4.52
11.11
16.72
20.97
23.67
24.82
24.59
23.24
21.10
18.50
15.77
13.16
10.88
9.04
7.71
6.89
6.54
6.57
6.84
7.18
7.41
7.35
6.90
5.97
4.61
2.92
1.06
-0.82
-2.58
-4.22
-5.74
-7.21
-8.64
-9.99
-11.19
-12.17
-12.95
-13.63
-14.37
-15.34
-16.64
-18.27
-20.02
-21.54
-22.34
-21.87
-19.72
-15.71
-10.05
-3.29
3.80
10.42
15.92
19.95
22.43
23.49
23.38
22.32
20.49
18.04
15.15
12.04
9.10
6.72
5.25
4.81
5.27
6.23
7.23
7.96
8.29
8.32
8.21
7.98
7.51
6.63
5.23
3.41
1.45
-0.37
-1.89
-3.18
-4.45
-5.88
-7.51
-9.18
-10.65
-11.73
-12.43
-12.96
-13.64
-14.74
-16.32
-18.14
-19.76
-20.61
-20.17
-18.10
-14.35
-9.16
-3.04
3.39
9.46
14.64
18.53
20.93
21.80
21.22
19.45
16.82
13.75
10.67
7.93
5.80
4.39
3.68
3.55
3.83
4.33
4.84
5.17
5.21
4.94
4.42
3.75
2.97
2.08
1.01
-0.31
-1.86
-3.57
-5.29
-6.90
-8.31
-9.55
-10.69
-11.81
-12.92
-13.96
-14.86
-15.60
-16.24
-16.90
-17.65
-18.36
-18.73
-18.28
-16.56
-13.30
-8.53
-2.64
3.74
9.90
15.23
19.34
22.08
23.50
23.75
23.02
21.47
19.25
16.52
13.47
10.39
7.63
5.49
4.19
3.73
3.98
4.60
5.29
5.75
5.82
5.48
4.75
3.72
2.50
1.19
-0.10
-1.29
-2.39
-3.42
-4.46
-5.59
-6.83
-8.21
-9.66
-11.11
-12.45
-13.56
-14.39
-14.92
-15.30
-15.72
-16.42
-17.49
-18.78
-19.86
-20.13
-19.03
-16.27
-11.92
-6.42
-0.43
5.41
10.61
14.92
18.22
20.45
21.55
21.43
20.11
17.81
14.91
11.92
9.35
7.48
6.43
6.06
6.15
6.46
6.80
7.07
7.23
7.26
7.11
6.70
6.01
5.01
3.77
2.40
1.06
-0.15
-1.20
-2.18
-3.24
-4.52
-6.04
-7.68
-9.22
-10.45
-11.29
-11.85
-12.36
-13.10
-14.22
-15.67
-17.22
-18.54
-19.26
-19.09
-17.82
-15.33
-11.65
-6.97
-1.66
3.76
8.77
12.90
15.85
17.49
17.87
17.18
15.67
13.61
11.32
9.05
7.04
5.44
4.31
3.62
3.24
3.09
3.07
3.17
3.42
3.80
4.22
4.56
4.59
4.20
3.38
2.25
1.02
-0.18
-1.29
-2.37
-3.50
-4.70
-5.90
-6.96
-7.79
-8.38
-8.85
-9.37
-10.08
-11.07
-12.32
-13.78
-15.34
-16.81
-17.91
-18.25
-17.40
-15.06
-11.21
-6.13
-0.45
5.11
9.89
13.45
15.62
16.48
16.22
15.05
13.19
10.87
8.34
5.92
3.92
2.58
1.99
2.05
2.53
3.18
3.81
4.37
4.84
5.23
5.48
5.50
5.17
4.47
3.42
2.11
0.63
-0.96
-2.58
-4.17
-5.69
-7.09
-8.35
-9.49
-10.52
-11.51
-12.51
-13.61
-14.85
-16.18
-17.39
-18.13
-17.94
-16.42
-13.37
-8.89
-3.39
2.52
8.15
12.93
16.48
18.70
19.64
19.47
18.34
16.43
13.93
11.08
8.25
5.81
4.05
3.06
2.75
2.88
3.21
3.60
4.00
4.43
4.87
5.19
5.23
4.85
4.05
2.92
1.64
0.36
-0.85
-2.05
-3.31
-4.66
-6.03
-7.29
-8.30
-9.01
-9.49
-9.93
-10.56
-11.58
-13.04
-14.85
-16.76
-18.37
-19.27
-19.08
-17.55
-14.59
-10.34
-5.09
0.71
6.51
11.71
15.83
18.50
19.61
19.29
17.85
15.69
13.18
10.62
8.24
6.17
4.57
3.54
3.13
3.31
3.93
4.78
5.63
6.31
6.76
7.00
7.08
7.03
6.78
6.23
5.28
3.93
2.29
0.54
-1.11
-2.49
-3.59
-4.51
-5.40
-6.40
-7.54
-8.77
-9.95
-10.94
-11.69
-12.26
-12.80
-13.49
-14.45
-15.68
-17.02
-18.19
-18.78
-18.35
-16.54
-13.24
-8.59
-3.05
2.74
8.15
12.71
16.22
18.62
19.95
20.19
19.32
17.38
14.64
11.54
8.62
6.32
4.84
4.10
3.88
3.96
4.20
4.57
5.05
5.58
6.06
6.32
6.26
5.83
5.05
3.99
2.73
1.36
0.02
-1.16
-2.09
-2.78
-3.34
-3.93
-4.71
-5.73
-6.93
-8.16
-9.22
-10.02
-10.56
-10.98
-11.49
-12.26
-13.39
-14.82
-16.30
-17.49
-17.98
-17.42
-15.60
-12.52
-8.35
-3.41
1.88
7.06
11.69
15.39
17.89
19.05
18.91
17.64
15.55
12.97
10.30
7.88
6.00
4.84
4.43
4.66
5.29
6.06
6.73
7.19
7.40
7.41
7.23
6.89
6.33
5.50
4.38
2.98
1.40
-0.27
-1.94
-3.55
-5.09
-6.53
-7.84
-8.97
-9.89
-10.61
-11.22
-11.87
-12.74
-13.95
-15.46
-17.02
-18.23
-18.57
-17.60
-15.07
-11.05
-5.88
-0.14
5.51
10.48
14.36
16.93
18.18
18.22
17.25
15.54
13.37
10.99
8.63
6.49
4.71
3.43
2.73
2.64
3.08
3.85
4.71
5.39
5.71
5.58
5.04
4.20
3.21
2.19
1.23
0.35
-0.49
-1.35
-2.33
-3.51
-4.89
-6.42
-7.92
-9.22
-10.18
-10.74
-11.01
-11.17
-11.41
-11.91
-12.77
-13.94
-15.25
-16.36
-16.82
-16.17
-14.06
-10.40
-5.45
0.20
5.87
10.88
14.82
17.51
18.97
19.27
18.50
16.76
14.25
11.32
8.43
6.07
4.54
3.92
3.97
4.37
4.82
5.17
5.41
5.61
5.80
5.92
5.84
5.46
4.71
3.66
2.42
1.13
-0.12
-1.28
-2.40
-3.55
-4.76
-6.06
-7.39
-8.64
-9.69
-10.48
-11.02
-11.40
-11.72
-12.14
-12.80
-13.82
-15.26
-16.98
-18.67
-19.84
-19.98
-18.69
-15.81
-11.49
-6.11
-0.24
5.59
10.86
15.17
18.22
19.85
20.07
19.01
16.97
14.35
11.56
9.00
6.96
5.59
4.88
4.69
4.81
5.06
5.31
5.51
5.65
5.74
5.70
5.46
4.89
3.94
2.64
1.12
-0.43
-1.84
-2.99
-3.84
-4.46
-4.97
-5.55
-6.38
-7.50
-8.82
-10.08
-10.96
-11.28
-11.06
-10.60
-10.35
-10.73
-11.91
-13.77
-15.84
-17.50
-18.16
-17.36
-14.89
-10.85
-5.57
0.40
6.38
11.76
16.03
18.87
20.20
20.15
19.00
17.15
14.97
12.81
10.86
9.20
7.83
6.75
5.97
5.58
5.62
6.07
6.77
7.47
7.92
7.92
7.46
6.59
5.44
4.11
2.61
0.97
-0.78
-2.55
-4.18
-5.56
-6.69
-7.66
-8.59
-9.57
-10.60
-11.58
-12.42
-13.12
-13.77
-14.52
-15.43
-16.39
-17.10
-17.14
-16.09
-13.69
-9.89
-4.92
0.79
6.62
11.95
16.21
19.08
20.48
20.55
19.58
17.85
15.63
13.11
10.47
7.95
5.82
4.31
3.55
3.44
3.75
4.14
4.34
4.23
3.87
3.38
2.91
2.51
2.10
1.59
0.88
-0.02
-1.08
-2.20
-3.33
-4.44
-5.50
-6.54
-7.54
-8.47
-9.31
-10.04
-10.59
-10.94
-11.08
-11.08
-11.13
-11.49
-12.38
-13.89
-15.87
-17.94
-19.51
-20.05
-19.14
-16.69
-12.89
-8.16
-3.01
2.06
6.68
10.54
13.43
15.25
15.96
15.64
14.48
12.74
10.70
8.62
6.76
5.31
4.40
4.08
4.27
4.86
5.67
6.62
7.60
8.56
9.40
10.03
10.31
10.19
9.66
8.78
7.68
6.46
5.24
4.07
3.03
2.12
1.31
0.55
-0.25
-1.14
-2.18
-3.43
-4.90
-6.59
-8.38
-10.10
-11.56
-12.65
-13.37
-13.88
-14.44
-15.33
-16.68
-18.43
-20.24
-21.56
-21.74
-20.24
-16.83
-11.69
-5.37
1.33
7.65
13.04
17.22
20.13
21.84
22.44
22.00
20.64
18.56
16.06
13.47
11.14
9.30
8.06
7.42
7.27
7.50
7.95
8.48
8.94
9.22
9.21
8.86
8.16
7.16
5.93
4.60
3.28
2.02
0.84
-0.32
-1.52
-2.77
-4.00
-5.06
-5.85
-6.34
-6.66
-7.01
-7.56
-8.37
-9.34
-10.30
-11.12
-11.76
-12.33
-12.99
-13.87
-15.01
-16.36
-17.80
-19.18
-20.23
-20.63
-20.01
-18.04
-14.62
-9.91
-4.34
1.50
7.04
11.80
15.49
18.02
19.36
19.62
18.89
17.35
15.22
12.78
10.36
8.26
6.72
5.83
5.59
5.85
6.42
7.06
7.61
7.92
7.93
7.63
7.03
6.19
5.13
3.90
2.54
1.12
-0.28
-1.57
-2.73
-3.77
-4.81
-5.89
-7.02
-8.09
-8.98
-9.63
-10.10
-10.57
-11.27
-12.34
-13.78
-15.42
-16.94
-17.92
-17.97
-16.77
-14.22
-10.42
-5.72
-0.59
4.49
9.13
13.03
16.03
18.01
18.88
18.67
17.50
15.64
13.44
11.27
9.40
7.98
7.05
6.54
6.35
6.37
6.48
6.58
6.57
6.41
6.03
5.42
4.59
3.60
2.52
1.41
0.29
-0.88
-2.14
-3.51
-4.93
-6.28
-7.49
-8.54
-9.52
-10.54
-11.65
-12.76
-13.76
-14.56
-15.21
-15.85
-16.64
-17.50
-18.17
-18.17
-17.08
-14.66
-10.99
-6.40
-1.37
3.64
8.21
12.05
14.95
16.76
17.45
17.09
15.85
13.99
11.81
9.61
7.68
6.23
5.37
5.11
5.34
5.84
6.40
6.82
7.03
7.05
6.99
6.94
6.92
6.86
6.63
6.06
5.09
3.78
2.30
0.86
-0.39
-1.40
-2.23
-3.04
-3.97
-5.08
-6.36
-7.69
-8.96
-10.10
-11.09
-11.98
-12.82
-13.67
-14.58
-15.58
-16.65
-17.68
-18.47
-18.69
-17.93
-15.86
-12.30
-7.42
-1.68
4.18
9.45
13.55
16.23
17.55
17.71
16.98
15.59
13.75
11.66
9.58
7.77
6.41
5.57
5.21
5.19
5.36
5.59
5.79
5.94
6.02
6.04
5.95
5.71
5.23
4.48
3.45
2.25
1.04
-0.03
-0.90
-1.61
-2.24
-2.88
-3.54
-4.16
-4.70
-5.18
-5.69
-6.35
-7.20
-8.21
-9.22
-10.10
-10.78
-11.31
-11.83
-12.53
-13.51
-14.72
-15.95
-16.84
-16.97
-15.98
-13.69
-10.19
-5.80
-1.02
3.63
7.73
10.99
13.27
14.57
14.94
14.48
13.36
11.76
9.89
7.94
6.09
4.52
3.38
2.79
2.78
3.27
4.05
4.86
5.48
5.77
5.72
5.43
5.00
4.50
3.92
3.23
2.40
1.46
0.47
-0.52
-1.47
-2.42
-3.42
-4.48
-5.61
-6.75
-7.82
-8.77
-9.57
-10.27
-10.98
-11.88
-13.07
-14.55
-16.05
-17.15
-17.28
-15.98
-13.08
-8.78
-3.61
1.71
6.50
10.32
13.00
14.56
15.18
15.02
14.24
12.99
11.42
9.74
8.19
6.95
6.15
5.80
5.80
6.02
6.36
6.73
7.09
7.41
7.65
7.72
7.53
6.99
6.11
4.96
3.71
2.51
1.46
0.55
-0.32
-1.26
-2.32
-3.45
-4.53
-5.47
-6.26
-6.96
-7.66
-8.41
-9.17
-9.87
-10.45
-10.89
-11.23
-11.54
-11.91
-12.42
-13.16
-14.18
-15.48
-16.87
-18.00
-18.43
-17.71
-15.57
-12.01
-7.34
-2.04
3.29
8.12
12.06
14.90
16.62
17.31
17.18
16.43
15.27
13.87
12.36
10.91
9.66
8.75
8.25
8.11
8.23
8.44
8.60
8.66
8.68
8.67
8.62
8.41
7.92
7.07
5.93
4.68
3.55
2.69
2.14
1.77
1.40
0.82
-0.09
-1.35
-2.85
-4.38
-5.65
-6.48
-6.79
-6.71
-6.53
-6.52
-6.89
-7.62
-8.57
-9.52
-10.33
-10.94
-11.42
-11.92
-12.60
-13.61
-14.98
-16.60
-18.12
-19.06
-18.90
-17.25
-14.01
-9.42
-4.02
1.52
6.62
10.85
14.00
16.02
16.93
16.84
15.89
14.29
12.33
10.33
8.58
7.31
6.58
6.33
6.42
6.67
6.96
7.24
7.53
7.83
8.07
8.17
7.95
7.34
6.36
5.15
3.90
2.80
1.91
1.18
0.51
-0.21
-0.99
-1.79
-2.55
-3.21
-3.80
-4.40
-5.10
-5.94
-6.89
-7.84
-8.67
-9.27
-9.63
-9.80
-9.92
-10.13
-10.56
-11.32
-12.50
-14.07
-15.88
-17.64
-18.90
-19.21
-18.21
-15.74
-11.94
-7.16
-1.93
3.19
7.72
11.31
13.79
15.13
15.42
14.80
13.48
11.71
9.78
8.01
6.63
5.77
5.43
5.50
5.81
6.21
6.58
6.86
7.06
7.18
7.23
7.20
7.07
6.78
6.27
5.49
4.43
3.15
1.73
0.32
-0.94
-1.97
-2.73
-3.27
-3.71
-4.20
-4.84
-5.68
-6.67
-7.71
-8.69
-9.54
-10.27
-10.97
-11.74
-12.74
-14.06
-15.66
-17.35
-18.75
-19.36
-18.70
-16.44
-12.62
-7.58
-1.92
3.69
8.69
12.72
15.68
17.56
18.39
18.21
17.08
15.18
12.82
10.44
8.49
7.24
6.76
6.89
7.33
7.82
8.21
8.49
8.70
8.82
8.77
8.42
7.66
6.55
5.22
3.89
2.72
1.72
0.82
-0.11
-1.14
-2.22
-3.25
-4.10
-4.77
-5.32
-5.88
-6.56
-7.35
-8.19
-8.96
-9.59
-10.07
-10.48
-10.92
-11.52
-12.35
-13.47
-14.86
-16.37
-17.74
-18.56
-18.37
-16.81
-13.74
-9.32
-3.97
1.69
7.05
11.61
15.12
17.54
18.95
19.46
19.16
18.11
16.39
14.19
11.80
9.60
7.90
6.87
6.48
6.57
6.93
7.43
8.01
8.61
9.17
9.54
9.56
9.11
8.18
6.89
5.42
3.94
2.59
1.38
0.32
-0.65
-1.55
-2.37
-3.12
-3.81
-4.49
-5.22
-6.04
-6.98
-8.00
-9.05
-10.04
-10.88
-11.55
-12.04
-12.41
-12.77
-13.25
-14.04
-15.20
-16.68
-18.18
-19.21
-19.22
-17.78
-14.75
-10.32
-5.01
0.56
5.81
10.30
13.80
16.20
17.48
17.70
16.98
15.50
13.52
11.31
9.17
7.33
5.98
5.13
4.72
4.56
4.49
4.40
4.31
4.29
4.41
4.64
4.87
4.92
4.67
4.14
3.48
2.87
2.43
2.15
1.89
1.44
0.65
-0.50
-1.92
-3.41
-4.79
-5.91
-6.74
-7.35
-7.86
-8.38
-9.02
-9.89
-11.08
-12.61
-14.40
-16.14
-17.37
-17.58
-16.37
-13.67
-9.71
-5.02
-0.14
4.45
8.49
11.80
14.28
15.80
16.22
15.52
13.84
11.49
8.89
6.43
4.40
2.96
2.15
1.92
2.17
2.74
3.43
4.01
4.31
4.21
3.71
2.91
1.98
1.06
0.24
-0.50
-1.23
-2.08
-3.12
-4.36
-5.74
-7.12
-8.33
-9.27
-9.91
-10.37
-10.84
-11.54
-12.63
-14.05
-15.56
-16.75
-17.15
-16.30
-13.98
-10.20
-5.27
0.27
5.79
10.69
14.57
17.23
18.68
18.98
18.28
16.70
14.42
11.73
8.97
6.49
4.54
3.24
2.50
2.17
2.07
2.08
2.12
2.17
2.19
2.15
2.02
1.73
1.20
0.32
-0.98
-2.66
-4.58
-6.46
-8.05
-9.23
-10.08
-10.84
-11.83
-13.23
-14.98
-16.77
-18.11
-18.46
-17.44
-14.88
-10.90
-5.86
-0.31
5.17
10.06
14.02
16.89
18.65
19.31
18.91
17.51
15.26
12.43
9.42
6.66
4.50
3.08
2.36
2.16
2.26
2.50
2.80
3.13
3.48
3.78
3.95
3.81
3.22
2.05
0.33
-1.75
-3.88
-5.74
-7.16
-8.18
-9.01
-9.98
-11.33
-13.10
-15.14
-17.12
-18.64
-19.30
-18.78
-16.91
-13.67
-9.22
-3.90
1.80
7.38
12.37
16.40
19.26
20.81
21.02
19.98
17.87
15.04
11.89
8.87
6.35
4.50
3.35
2.78
2.66
2.86
3.29
3.89
4.52
5.01
5.19
4.94
4.27
3.29
2.16
0.95
-0.33
-1.74
-3.31
-5.01
-6.72
-8.30
-9.61
-10.62
-11.36
-11.95
-12.60
-13.50
-14.82
-16.57
-18.55
-20.31
-21.21
-20.62
-18.11
-13.65
-7.66
-0.86
5.86
11.73
16.25
19.20
20.64
20.72
19.67
17.69
15.02
12.01
9.05
6.55
4.78
3.79
3.44
3.49
3.71
3.99
4.34
4.79
5.34
5.86
6.16
6.05
5.44
4.38
3.02
1.52
0.00
-1.51
-3.07
-4.68
-6.31
-7.83
-9.12
-10.14
-10.93
-11.63
-12.38
-13.30
-14.44
-15.79
-17.24
-18.58
-19.46
-19.50
-18.30
-15.65
-11.58
-6.35
-0.43
5.61
11.21
15.90
19.35
21.39
21.96
21.18
19.32
16.73
13.80
10.93
8.46
6.59
5.39
4.80
4.66
4.80
5.03
5.24
5.38
5.43
5.35
5.09
4.61
3.85
2.84
1.60
0.20
-1.30
-2.87
-4.48
-6.09
-7.62
-9.03
-10.29
-11.43
-12.58
-13.85
-15.32
-16.85
-18.16
-18.81
-18.39
-16.62
-13.43
-9.03
-3.79
1.82
7.29
12.21
16.20
19.02
20.54
20.77
19.85
18.04
15.65
12.97
10.26
7.73
5.58
3.97
3.00
2.67
2.87
3.36
3.88
4.19
4.19
3.89
3.34
2.61
1.72
0.66
-0.61
-2.09
-3.71
-5.40
-7.06
-8.60
-9.95
-11.08
-12.01
-12.77
-13.45
-14.19
-15.11
-16.25
-17.51
-18.56
-18.93
-18.08
-15.61
-11.40
-5.75
0.72
7.19
12.92
17.39
20.38
21.93
22.16
21.26
19.42
16.91
14.02
11.09
8.40
6.14
4.38
3.16
2.49
2.39
2.81
3.60
4.50
5.20
5.44
5.11
4.26
3.08
1.76
0.46
-0.76
-1.91
-3.04
-4.22
-5.46
-6.77
-8.12
-9.43
-10.63
-11.63
-12.45
-13.15
-13.94
-14.97
-16.33
-17.92
-19.40
-20.27
-19.99
-18.18
-14.75
-9.90
-4.13
1.96
7.75
12.73
16.55
19.04
20.16
20.03
18.85
16.91
14.46
11.81
9.27
7.16
5.74
5.14
5.30
5.94
6.74
7.38
7.73
7.81
7.73
7.54
7.19
6.55
5.54
4.24
2.84
1.57
0.61
-0.07
-0.63
-1.27
-2.15
-3.32
-4.69
-6.13
-7.52
-8.76
-9.82
-10.71
-11.49
-12.22
-13.01
-13.93
-15.06
-16.40
-17.82
-19.04
-19.65
-19.18
-17.27
-13.77
-8.88
-3.08
2.99
8.66
13.40
16.89
18.96
19.67
19.15
17.69
15.61
13.24
10.90
8.83
7.17
6.04
5.45
5.40
5.78
6.41
7.07
7.58
7.81
7.74
7.43
6.92
6.25
5.39
4.28
2.90
1.30
-0.38
-1.95
-3.26
-4.26
-5.04
-5.76
-6.60
-7.63
-8.79
-9.90
-10.76
-11.24
-11.38
-11.39
-11.57
-12.22
-13.45
-15.12
-16.79
-17.85
-17.70
-15.99
-12.72
-8.24
-3.13
1.98
6.59
10.36
13.16
14.97
15.85
15.90
15.22
13.89
12.02
9.78
7.41
5.19
3.43
2.33
1.91
2.03
2.44
2.90
3.26
3.49
3.60
3.60
3.45
3.09
2.47
1.60
0.53
-0.65
-1.88
-3.12
-4.34
-5.51
-6.55
-7.40
-8.07
-8.62
-9.20
-9.96
-10.98
-12.27
-13.65
-14.83
-15.44
-15.06
-13.38
-10.29
-5.98
-0.90
4.31
9.02
12.78
15.36
16.81
17.25
16.83
15.69
13.94
11.72
9.27
6.91
4.95
3.63
3.02
3.01
3.35
3.78
4.06
4.11
3.90
3.49
2.94
2.29
1.55
0.71
-0.23
-1.27
-2.42
-3.65
-4.92
-6.14
-7.23
-8.13
-8.86
-9.54
-10.30
-11.26
-12.45
-13.78
-15.08
-16.14
-16.66
-16.33
-14.86
-12.11
-8.13
-3.25
2.01
7.04
11.28
14.36
16.12
16.63
16.09
14.77
12.93
10.82
8.65
6.60
4.86
3.58
2.87
2.73
3.07
3.69
4.34
4.82
5.04
4.99
4.78
4.49
4.19
3.83
3.33
2.56
1.49
0.19
-1.18
-2.47
-3.58
-4.55
-5.46
-6.40
-7.41
-8.41
-9.32
-10.07
-10.74
-11.44
-12.35
-13.58
-15.10
-16.67
-17.92
-18.37
-17.59
-15.28
-11.42
-6.30
-0.49
5.31
10.45
14.42
17.02
18.25
18.33
17.48
15.94
13.92
11.63
9.32
7.23
5.55
4.40
3.81
3.65
3.77
4.04
4.36
4.67
4.97
5.24
5.43
5.44
5.17
4.59
3.73
2.72
1.69
0.72
-0.21
-1.18
-2.30
-3.58
-4.97
-6.36
-7.63
-8.69
-9.53
-10.16
-10.63
-11.00
-11.36
-11.82
-12.54
-13.64
-15.07
-16.64
-17.86
-18.19
-17.09
-14.34
-10.04
-4.71
0.97
6.32
10.85
14.28
16.55
17.70
17.82
17.01
15.45
13.35
10.98
8.60
6.44
4.66
3.33
2.45
1.99
1.87
2.08
2.57
3.29
4.14
4.94
5.52
5.69
5.37
4.58
3.43
2.08
0.70
-0.57
-1.66
-2.60
-3.46
-4.38
-5.43
-6.60
-7.78
-8.81
-9.54
-9.93
-10.03
-10.02
-10.10
-10.46
-11.24
-12.53
-14.27
-16.20
-17.89
-18.74
-18.19
-15.90
-11.91
-6.63
-0.71
5.11
10.21
14.20
16.89
18.32
18.60
17.93
16.55
14.65
12.47
10.18
7.99
6.09
4.62
3.67
3.21
3.12
3.24
3.40
3.52
3.58
3.56
3.49
3.32
2.98
2.40
1.55
0.47
-0.77
-2.02
-3.19
-4.22
-5.10
-5.88
-6.58
-7.27
-7.98
-8.76
-9.71
-10.96
-12.55
-14.37
-16.11
-17.25
-17.24
-15.68
-12.47
-7.88
-2.51
2.94
7.85
11.82
14.69
16.50
17.34
17.31
16.47
14.90
12.76
10.30
7.85
5.75
4.23
3.34
2.97
2.90
2.93
2.95
2.97
3.05
3.24
3.48
3.62
3.50
3.01
2.14
0.93
-0.49
-2.03
-3.58
-5.03
-6.28
-7.30
-8.11
-8.81
-9.58
-10.58
-11.91
-13.56
-15.35
-17.00
-18.09
-18.15
-16.79
-13.85
-9.46
-4.05
1.74
7.21
11.81
15.19
17.20
17.92
17.50
16.19
14.25
11.97
9.61
7.43
5.57
4.11
3.06
2.38
2.04
2.03
2.32
2.81
3.37
3.80
3.91
3.61
2.94
2.02
0.99
-0.04
-1.05
-2.09
-3.18
-4.27
-5.25
-6.07
-6.73
-7.35
-8.12
-9.19
-10.63
-12.38
-14.24
-15.88
-16.94
-17.02
-15.85
-13.30
-9.50
-4.78
0.41
5.55
10.19
13.97
16.66
18.15
18.45
17.69
16.08
13.90
11.41
8.86
6.46
4.37
2.71
1.52
0.78
0.45
0.44
0.68
1.06
1.49
1.88
2.11
2.12
1.85
1.29
0.44
-0.67
-2.00
-3.50
-5.06
-6.62
-8.09
-9.44
-10.63
-11.66
-12.61
-13.56
-14.62
-15.80
-17.02
-17.99
-18.29
-17.51
-15.37
-11.84
-7.17
-1.86
3.53
8.47
12.54
15.53
17.38
18.14
17.95
16.92
15.17
12.87
10.21
7.50
5.05
3.16
1.98
1.47
1.46
1.69
1.94
2.11
2.20
2.29
2.39
2.44
2.29
1.81
0.88
-0.49
-2.19
-4.03
-5.79
-7.31
-8.49
-9.38
-10.11
-10.89
-11.87
-13.19
-14.78
-16.46
-17.90
-18.66
-18.28
-16.45
-13.06
-8.32
-2.74
3.04
8.38
12.79
16.01
17.98
18.75
18.43
17.16
15.14
12.61
9.88
7.23
4.91
3.10
1.87
1.23
1.08
1.28
1.70
2.20
2.66
3.02
3.16
2.97
2.36
1.29
-0.15
-1.78
-3.40
-4.82
-5.97
-6.86
-7.61
-8.38
-9.36
-10.73
-12.57
-14.78
-17.05
-18.81
-19.47
-18.50
-15.68
-11.15
-5.42
0.80
6.80
11.98
16.00
18.73
20.25
20.70
20.21
18.88
16.82
14.18
11.20
8.24
5.68
3.80
2.76
2.49
2.81
3.45
4.17
4.79
5.21
5.38
5.30
4.94
4.29
3.33
2.02
0.38
-1.57
-3.71
-5.94
-8.09
-10.08
-11.83
-13.34
-14.63
-15.75
-16.81
-17.94
-19.25
-20.69
-21.95
-22.46
-21.59
-18.86
-14.23
-8.08
-1.16
5.70
11.86
16.96
20.86
23.51
24.86
24.82
23.44
20.94
17.75
14.42
11.45
9.21
7.83
7.28
7.38
7.84
8.37
8.69
8.65
8.26
7.65
6.99
6.38
5.79
5.07
4.11
2.88
1.51
0.17
-0.96
-1.83
-2.51
-3.16
-3.94
-4.95
-6.18
-7.54
-8.90
-10.17
-11.35
-12.49
-13.70
-15.05
-16.50
-17.99
-19.42
-20.70
-21.75
-22.42
-22.43
-21.36
-18.83
-14.66
-9.03
-2.44
4.40
10.80
16.28
20.59
23.62
25.36
25.79
24.92
22.90
20.09
16.97
14.10
11.90
10.56
10.05
10.15
10.59
11.15
11.65
11.96
11.98
11.65
10.92
9.86
8.57
7.23
5.96
4.79
3.67
2.48
1.13
-0.38
-1.99
-3.54
-4.93
-6.07
-6.97
-7.65
-8.18
-8.63
-9.08
-9.65
-10.39
-11.33
-12.36
-13.33
-14.06
-14.46
-14.61
-14.71
-15.05
-15.88
-17.30
-19.18
-21.12
-22.50
-22.68
-21.11
-17.55
-12.20
-5.64
1.35
7.95
13.57
17.88
20.79
22.36
22.70
21.92
20.19
17.77
15.01
12.33
10.10
8.56
7.78
7.66
7.96
8.44
8.85
9.06
8.98
8.62
8.04
7.31
6.51
5.72
4.95
4.22
3.47
2.59
1.52
0.21
-1.27
-2.76
-4.09
-5.09
-5.71
-6.05
-6.28
-6.58
-7.11
-7.89
-8.84
-9.81
-10.63
-11.22
-11.59
-11.87
-12.27
-12.99
-14.10
-15.45
-16.64
-17.12
-16.39
-14.17
-10.49
-5.72
-0.42
4.85
9.62
13.56
16.44
18.13
18.54
17.74
15.96
13.59
11.06
8.81
7.10
5.98
5.41
5.20
5.19
5.30
5.48
5.73
6.01
6.26
6.42
6.40
6.16
5.68
4.96
4.01
2.88
1.67
0.48
-0.61
-1.55
-2.38
-3.17
-4.00
-4.89
-5.84
-6.79
-7.72
-8.60
-9.40
-10.09
-10.63
-11.02
-11.35
-11.74
-12.36
-13.30
-14.56
-15.98
-17.27
-18.06
-17.95
-16.66
-14.03
-10.16
-5.34
-0.06
5.15
9.83
13.65
16.45
18.18
18.86
18.50
17.15
14.94
12.14
9.13
6.38
4.26
2.99
2.52
2.65
3.11
3.66
4.16
4.56
4.87
5.09
5.22
5.28
5.23
5.08
4.77
4.28
3.53
2.48
1.22
-0.14
-1.37
-2.29
-2.78
-2.91
-2.83
-2.76
-2.90
-3.35
-4.11
-5.12
-6.27
-7.47
-8.64
-9.75
-10.85
-12.05
-13.47
-15.13
-16.92
-18.53
-19.53
-19.49
-18.12
-15.33
-11.31
-6.43
-1.19
3.89
8.36
11.90
14.34
15.66
15.94
15.33
14.02
12.26
10.33
8.50
7.01
5.99
5.47
5.41
5.69
6.22
6.91
7.66
8.32
8.74
8.80
8.44
7.69
6.68
5.54
4.37
3.21
2.02
0.77
-0.58
-1.99
-3.44
-4.87
-6.27
-7.67
-9.06
-10.42
-11.71
-12.83
-13.71
-14.26
-14.47
-14.40
-14.16
-13.94
-13.94
-14.31
-15.10
-16.21
-17.35
-18.16
-18.21
-17.13
-14.72
-10.98
-6.11
-0.57
5.08
10.26
14.56
17.72
19.72
20.61
20.45
19.33
17.36
14.76
11.85
9.02
6.60
4.77
3.52
2.75
2.32
2.14
2.18
2.38
2.66
2.84
2.79
2.44
1.78
0.94
0.03
-0.85
-1.67
-2.48
-3.33
-4.27
-5.31
-6.37
-7.37
-8.25
-8.97
-9.53
-9.94
-10.24
-10.50
-10.84
-11.41
-12.30
-13.44
-14.47
-14.89
-14.18
-11.98
-8.32
-3.55
1.74
6.95
11.61
15.44
18.30
20.15
20.93
20.64
19.30
17.06
14.18
11.02
7.98
5.43
3.61
2.59
2.31
2.58
3.20
3.94
4.63
5.12
5.31
5.13
4.61
3.80
2.83
1.76
0.63
-0.57
-1.89
-3.32
-4.80
-6.23
-7.51
-8.61
-9.58
-10.56
-11.68
-13.05
-14.70
-16.51
-18.25
-19.53
-19.89
-18.90
-16.30
-12.13
-6.77
-0.85
4.94
10.04
14.11
17.07
18.96
19.83
19.68
18.52
16.45
13.74
10.78
8.02
5.77
4.18
3.23
2.80
2.76
2.97
3.34
3.76
4.14
4.37
4.37
4.14
3.70
3.11
2.46
1.76
1.02
0.21
-0.73
-1.84
-3.12
-4.54
-6.02
-7.45
-8.75
-9.89
-10.93
-12.00
-13.25
-14.75
-16.46
-18.12
-19.32
-19.55
-18.36
-15.50
-11.01
-5.30
1.01
7.19
12.62
16.88
19.85
21.58
22.18
21.73
20.33
18.11
15.34
12.46
9.89
7.97
6.80
6.25
6.07
6.03
6.05
6.10
6.21
6.34
6.38
6.20
5.73
4.97
3.97
2.82
1.57
0.24
-1.16
-2.58
-3.95
-5.20
-6.34
-7.40
-8.49
-9.68
-10.96
-12.22
-13.32
-14.15
-14.74
-15.28
-15.98
-17.02
-18.39
-19.86
-21.01
-21.32
-20.33
-17.79
-13.70
-8.38
-2.37
3.67
9.13
13.59
16.83
18.84
19.70
19.52
18.40
16.46
13.91
11.09
8.38
6.13
4.53
3.61
3.24
3.25
3.48
3.87
4.39
4.94
5.41
5.62
5.44
4.81
3.80
2.61
1.41
0.30
-0.74
-1.85
-3.14
-4.64
-6.24
-7.73
-8.92
-9.70
-10.15
-10.45
-10.84
-11.47
-12.43
-13.64
-14.99
-16.26
-17.19
-17.46
-16.67
-14.53
-10.91
-6.03
-0.38
5.35
10.50
14.58
17.39
18.99
19.54
19.22
18.14
16.39
14.10
11.51
8.97
6.82
5.33
4.59
4.49
4.81
5.27
5.63
5.70
5.40
4.77
3.89
2.91
1.95
1.07
0.20
-0.75
-1.93
-3.37
-5.03
-6.71
-8.22
-9.43
-10.35
-11.10
-11.84
-12.74
-13.85
-15.12
-16.44
-17.66
-18.55
-18.80
-18.06
-16.02
-12.52
-7.65
-1.86
4.22
9.89
14.55
17.89
19.82
20.45
19.97
18.58
16.52
14.04
11.42
9.01
7.08
5.79
5.13
4.93
5.00
5.15
5.31
5.48
5.64
5.74
5.65
5.23
4.36
3.10
1.57
0.00
-1.45
-2.70
-3.77
-4.72
-5.66
-6.62
-7.65
-8.69
-9.68
-10.51
-11.14
-11.66
-12.21
-13.05
-14.32
-15.95
-17.63
-18.83
-18.97
-17.65
-14.72
-10.37
-5.02
0.77
6.44
11.50
15.60
18.54
20.23
20.69
20.04
18.43
16.12
13.47
10.84
8.58
6.87
5.75
5.16
5.00
5.16
5.55
6.04
6.50
6.77
6.79
6.58
6.16
5.57
4.71
3.54
2.02
0.29
-1.36
-2.66
-3.49
-3.93
-4.25
-4.76
-5.63
-6.82
-8.17
-9.41
-10.40
-11.11
-11.67
-12.31
-13.25
-14.60
-16.32
-18.17
-19.78
-20.67
-20.40
-18.66
-15.35
-10.67
-5.05
0.89
6.45
11.09
14.46
16.51
17.38
17.31
16.48
15.03
13.03
10.62
8.05
5.64
3.72
2.51
2.08
2.30
2.98
3.87
4.80
5.64
6.30
6.70
6.75
6.41
5.68
4.64
3.46
2.30
1.30
0.52
-0.08
-0.59
-1.14
-1.84
-2.79
-4.02
-5.52
-7.21
-8.91
-10.45
-11.65
-12.41
-12.73
-12.68
-12.40
-12.07
-11.83
-11.86
-12.25
-13.00
-13.95
-14.79
-15.10
-14.46
-12.58
-9.42
-5.17
-0.27
4.76
9.36
13.08
15.64
16.97
17.14
16.37
14.89
12.97
10.81
8.64
6.62
4.96
3.78
3.20
3.24
3.81
4.75
5.81
6.76
7.42
7.68
7.58
7.15
6.43
5.38
3.96
2.14
0.03
-2.19
-4.27
-6.01
-7.38
-8.42
-9.31
-10.17
-11.13
-12.24
-13.55
-15.08
-16.79
-18.51
-19.90
-20.55
-20.00
-17.96
-14.40
-9.54
-3.88
1.99
7.47
12.08
15.51
17.66
18.60
18.46
17.48
15.88
13.90
11.78
9.70
7.85
6.35
5.28
4.68
4.56
4.87
5.48
6.19
6.79
7.04
6.86
6.23
5.29
4.21
3.12
2.08
1.07
0.08
-0.94
-2.02
-3.21
-4.56
-6.10
-7.77
-9.47
-11.00
-12.20
-12.99
-13.45
-13.82
-14.34
-15.17
-16.19
-17.03
-17.11
-15.89
-13.09
-8.79
-3.46
2.23
7.63
12.31
16.06
18.83
20.65
21.51
21.37
20.26
18.32
15.81
13.09
10.51
8.33
6.64
5.41
4.55
3.96
3.61
3.50
3.64
3.97
4.33
4.53
4.36
3.73
2.63
1.22
-0.30
-1.75
-2.99
-3.96
-4.72
-5.42
-6.18
-7.10
-8.15
-9.25
-10.23
-11.00
-11.49
-11.76
-11.96
-12.26
-12.84
-13.81
-15.16
-16.67
-17.95
-18.46
-17.72
-15.41
-11.61
-6.71
-1.36
3.76
8.17
11.67
14.24
16.00
16.99
17.21
16.63
15.28
13.30
10.98
8.65
6.58
4.94
3.75
2.96
2.48
2.21
2.13
2.20
2.38
2.62
2.79
2.80
2.56
2.10
1.50
0.86
0.27
-0.27
-0.79
-1.35
-2.02
-2.81
-3.69
-4.61
-5.52
-6.38
-7.19
-8.01
-8.92
-10.01
-11.31
-12.76
-14.14
-15.11
-15.31
-14.39
-12.19
-8.78
-4.43
0.39
5.20
9.54
13.11
15.71
17.27
17.79
17.36
16.17
14.42
12.36
10.24
8.22
6.41
4.90
3.77
3.08
2.86
3.07
3.57
4.14
4.56
4.68
4.44
3.91
3.19
2.36
1.45
0.46
-0.66
-1.88
-3.20
-4.58
-6.00
-7.43
-8.86
-10.24
-11.47
-12.47
-13.19
-13.65
-13.99
-14.37
-14.91
-15.63
-16.36
-16.75
-16.38
-14.86
-12.02
-7.94
-2.97
2.41
7.68
12.40
16.22
18.91
20.36
20.54
19.59
17.72
15.21
12.37
9.48
6.82
4.59
2.99
2.07
1.78
1.95
2.39
2.91
3.47
4.03
4.55
4.94
5.01
4.66
3.91
2.89
1.84
0.90
0.11
-0.64
-1.46
-2.46
-3.64
-4.91
-6.18
-7.36
-8.41
-9.30
-10.05
-10.70
-11.34
-12.09
-13.06
-14.30
-15.76
-17.26
-18.51
-19.13
-18.73
-16.98
-13.74
-9.16
-3.65
2.15
7.63
12.28
15.83
18.23
19.53
19.82
19.18
17.77
15.77
13.44
11.09
9.01
7.38
6.30
5.75
5.62
5.77
6.04
6.29
6.44
6.45
6.32
6.05
5.59
4.90
3.93
2.74
1.40
0.08
-1.14
-2.20
-3.17
-4.14
-5.21
-6.40
-7.64
-8.80
-9.73
-10.37
-10.74
-10.94
-11.13
-11.45
-11.99
-12.83
-14.01
-15.49
-17.07
-18.34
-18.77
-17.81
-15.17
-10.92
-5.55
0.21
5.62
10.13
13.49
15.71
16.91
17.22
16.68
15.35
13.36
10.97
8.52
6.34
4.67
3.54
2.89
2.56
2.48
2.62
3.01
3.62
4.33
4.93
5.18
4.93
4.16
3.00
1.67
0.35
-0.81
-1.79
-2.60
-3.31
-4.04
-4.90
-5.95
-7.19
-8.49
-9.70
-10.67
-11.35
-11.87
-12.44
-13.27
-14.41
-15.67
-16.60
-16.68
-15.44
-12.71
-8.64
-3.69
1.55
6.52
10.80
14.18
16.59
18.01
18.43
17.89
16.49
14.40
11.91
9.31
6.85
4.73
3.11
2.09
1.70
1.83
2.30
2.85
3.24
3.38
3.28
3.03
2.72
2.34
1.87
1.21
0.31
-0.82
-2.17
-3.67
-5.31
-7.02
-8.74
-10.38
-11.84
-13.05
-14.05
-14.95
-15.87
-16.84
-17.70
-18.04
-17.36
-15.24
-11.55
-6.57
-0.88
4.75
9.73
13.69
16.56
18.41
19.28
19.16
18.00
15.85
12.96
9.78
6.82
4.51
3.05
2.34
2.14
2.14
2.16
2.14
2.15
2.26
2.47
2.65
2.65
2.33
1.68
0.75
-0.35
-1.53
-2.76
-4.02
-5.30
-6.55
-7.71
-8.72
-9.63
-10.56
-11.70
-13.21
-15.10
-17.15
-18.93
-19.91
-19.60
-17.69
-14.19
-9.41
-3.86
1.87
7.23
11.79
15.24
17.44
18.40
18.25
17.21
15.58
13.61
11.50
9.42
7.48
5.82
4.57
3.85
3.74
4.18
5.04
6.08
7.04
7.68
7.86
7.52
6.71
5.53
4.13
2.62
1.09
-0.42
-1.88
-3.30
-4.66
-5.96
-7.18
-8.32
-9.38
-10.37
-11.33
-12.30
-13.35
-14.55
-15.91
-17.29
-18.37
-18.70
-17.80
-15.38
-11.40
-6.21
-0.37
5.47
10.72
15.01
18.15
20.07
20.74
20.21
18.57
16.05
12.99
9.86
7.13
5.17
4.15
4.02
4.52
5.28
6.00
6.48
6.72
6.82
6.85
6.82
6.59
5.97
4.86
3.32
1.53
-0.20
-1.64
-2.73
-3.54
-4.29
-5.20
-6.39
-7.83
-9.38
-10.86
-12.11
-13.06
-13.72
-14.17
-14.56
-15.04
-15.78
-16.87
-18.21
-19.49
-20.17
-19.62
-17.33
-13.12
-7.29
-0.54
6.21
12.10
16.53
19.24
20.31
20.00
18.70
16.77
14.53
12.26
10.18
8.45
7.18
6.40
6.12
6.27
6.71
7.29
7.85
8.27
8.47
8.44
8.16
7.58
6.63
5.28
3.62
1.86
0.28
-0.92
-1.69
-2.21
-2.77
-3.61
-4.83
-6.32
-7.81
-9.06
-9.89
-10.30
-10.44
-10.56
-10.93
-11.74
-13.05
-14.66
-16.11
-16.84
-16.32
-14.24
-10.61
-5.76
-0.19
5.48
10.71
15.04
18.14
19.84
20.14
19.24
17.46
15.22
12.88
10.73
8.94
7.63
6.81
6.43
6.36
6.41
6.42
6.30
6.06
5.82
5.66
5.59
5.50
5.18
4.49
3.38
1.97
0.50
-0.85
-1.93
-2.80
-3.57
-4.41
-5.43
-6.62
-7.92
-9.22
-10.43
-11.50
-12.41
-13.19
-13.87
-14.53
-15.29
-16.27
-17.52
-18.91
-20.07
-20.46
-19.50
-16.78
-12.29
-6.43
0.04
6.30
11.64
15.66
18.27
19.60
19.86
19.28
18.03
16.26
14.19
12.05
10.11
8.61
7.71
7.43
7.63
8.10
8.57
8.87
8.91
8.78
8.55
8.28
7.91
7.31
6.36
5.02
3.44
1.87
0.57
-0.32
-0.84
-1.19
-1.59
-2.20
-3.00
-3.85
-4.61
-5.17
-5.56
-5.87
-6.25
-6.79
-7.54
-8.45
-9.43
-10.37
-11.17
-11.78
-12.22
-12.58
-13.01
-13.63
-14.53
-15.73
-17.19
-18.81
-20.35
-21.42
-21.48
-19.99
-16.60
-11.37
-4.80
2.25
8.84
14.23
18.01
20.17
20.94
20.67
19.61
17.99
15.97
13.75
11.58
9.71
8.31
7.46
7.08
7.07
7.26
7.54
7.83
8.06
8.17
8.10
7.79
7.25
6.51
5.66
4.79
3.94
3.15
2.42
1.75
1.11
0.47
-0.27
-1.15
-2.15
-3.15
-3.98
-4.52
-4.77
-4.87
-5.01
-5.33
-5.83
-6.41
-6.99
-7.52
-8.09
-8.80
-9.71
-10.73
-11.71
-12.53
-13.17
-13.74
-14.42
-15.41
-16.78
-18.40
-19.95
-20.96
-20.88
-19.30
-16.02
-11.17
-5.18
1.34
7.66
13.16
17.38
20.10
21.33
21.24
20.11
18.23
15.89
13.37
10.94
8.88
7.48
6.87
7.01
7.65
8.40
8.95
9.16
9.09
8.94
8.86
8.87
8.78
8.37
7.49
6.13
4.52
2.94
1.65
0.74
0.14
-0.36
-0.98
-1.85
-3.00
-4.30
-5.56
-6.60
-7.30
-7.70
-7.94
-8.18
-8.56
-9.12
-9.84
-10.62
-11.36
-11.99
-12.43
-12.65
-12.64
-12.48
-12.36
-12.52
-13.16
-14.28
-15.55
-16.41
-16.21
-14.50
-11.21
-6.66
-1.44
3.85
8.70
12.83
16.03
18.17
19.14
18.89
17.55
15.42
12.93
10.51
8.42
6.80
5.62
4.80
4.29
4.04
4.08
4.38
4.91
5.56
6.22
6.76
7.10
7.17
6.95
6.42
5.55
4.35
2.90
1.35
-0.06
-1.15
-1.81
-2.14
-2.37
-2.80
-3.66
-4.97
-6.57
-8.17
-9.49
-10.38
-10.89
-11.19
-11.49
-11.98
-12.75
-13.80
-14.98
-16.06
-16.69
-16.48
-15.11
-12.42
-8.51
-3.73
1.36
6.21
10.35
13.50
15.56
16.53
16.47
15.49
13.74
11.44
8.86
6.32
4.08
2.31
1.10
0.44
0.23
0.39
0.84
1.50
2.31
3.17
3.97
4.60
4.94
4.95
4.63
4.00
3.13
2.09
0.98
-0.11
-1.04
-1.74
-2.24
-2.69
-3.26
-4.10
-5.22
-6.46
-7.61
-8.49
-9.08
-9.52
-10.02
-10.79
-11.88
-13.22
-14.60
-15.76
-16.40
-16.23
-14.99
-12.55
-8.93
-4.38
0.65
5.62
9.98
13.33
15.46
16.33
16.10
15.00
13.31
11.32
9.24
7.25
5.47
4.00
2.91
2.24
2.01
2.18
2.69
3.42
4.25
5.06
5.73
6.14
6.19
5.84
5.10
4.09
2.94
1.78
0.70
-0.31
-1.29
-2.31
-3.40
-4.58
-5.81
-7.09
-8.36
-9.55
-10.61
-11.50
-12.26
-13.03
-13.99
-15.24
-16.71
-18.10
-18.94
-18.75
-17.16
-14.13
-9.91
-4.95
0.18
4.96
9.03
12.19
14.36
15.55
15.80
15.17
13.79
11.84
9.54
7.20
5.08
3.35
2.09
1.27
0.81
0.68
0.87
1.34
2.03
2.77
3.39
3.73
3.72
3.37
2.77
2.01
1.22
0.48
-0.09
-0.44
-0.58
-0.59
-0.60
-0.70
-0.93
-1.23
-1.52
-1.75
-1.95
-2.22
-2.68
-3.46
-4.56
-5.91
-7.27
-8.30
-8.61
-7.83
-5.73
-2.32
2.11
7.09
12.06
16.48
19.97
22.33
23.54
23.72
23.07
21.78
20.06
18.07
15.93
13.83
11.91
10.33
9.14
8.32
7.78
7.42
7.22
7.17
7.31
7.58
7.82
7.83
7.39
6.38
4.85
2.96
0.92
-1.07
-2.90
-4.57
-6.13
-7.65
-9.19
-10.76
-12.35
-13.92
-15.46
-16.98
-18.53
-20.08
-21.50
-22.49
-22.68
-21.73
-19.43
-15.84
-11.24
-6.11
-0.94
3.85
7.93
11.13
13.33
14.49
14.64
13.85
12.30
10.25
8.00
5.85
4.06
2.76
2.02
1.78
1.91
2.26
2.68
3.01
3.12
2.95
2.49
1.80
0.99
0.17
-0.62
-1.41
-2.31
-3.42
-4.76
-6.29
-7.87
-9.38
-10.75
-12.00
-13.14
-14.25
-15.33
-16.41
-17.43
-18.28
-18.77
-18.56
-17.32
-14.78
-10.93
-6.04
-0.68
4.51
8.95
12.35
14.66
15.99
16.50
16.28
15.37
13.82
11.77
9.47
7.20
5.25
3.80
2.93
2.59
2.68
3.07
3.58
4.03
4.25
4.12
3.62
2.82
1.88
0.95
0.08
-0.74
-1.65
-2.81
-4.28
-6.01
-7.83
-9.55
-11.02
-12.20
-13.14
-13.95
-14.78
-15.74
-16.87
-18.14
-19.29
-19.95
-19.67
-18.06
-15.00
-10.69
-5.57
-0.19
4.96
9.50
13.15
15.68
16.92
16.79
15.37
13.01
10.17
7.38
5.05
3.41
2.50
2.21
2.36
2.74
3.19
3.59
3.89
4.09
4.16
4.08
3.75
3.07
2.00
0.58
-1.10
-2.89
-4.68
-6.36
-7.91
-9.31
-10.58
-11.78
-13.03
-14.50
-16.22
-18.08
-19.73
-20.66
-20.38
-18.57
-15.20
-10.53
-5.04
0.77
6.44
11.60
15.93
19.10
20.83
20.92
19.44
16.72
13.36
10.03
7.29
5.45
4.55
4.40
4.72
5.23
5.75
6.14
6.33
6.27
5.96
5.45
4.78
3.98
3.02
1.84
0.39
-1.36
-3.32
-5.33
-7.16
-8.66
-9.76
-10.53
-11.17
-11.86
-12.79
-14.08
-15.78
-17.86
-20.13
-22.16
-23.34
-23.00
-20.63
-16.15
-10.01
-3.07
3.69
9.49
13.95
17.05
18.99
19.98
20.06
19.26
17.63
15.39
12.94
10.71
9.05
8.05
7.65
7.64
7.85
8.18
8.62
9.14
9.69
10.10
10.18
9.77
8.80
7.32
5.49
3.50
1.58
-0.10
-1.46
-2.52
-3.37
-4.18
-5.09
-6.18
-7.47
-8.90
-10.31
-11.51
-12.35
-12.83
-13.10
-13.45
-14.22
-15.69
-17.87
-20.45
-22.82
-24.23
-23.98
-21.66
-17.25
-11.21
-4.39
2.19
7.61
11.35
13.31
13.77
13.23
12.25
11.14
9.87
8.19
5.90
3.02
-0.15
-3.21
-5.76
-7.33
-7.76
-7.37
-6.89
-7.05
-8.31
-10.74
-14.14
-18.00
-21.47
-23.92
-25.34
-26.30
-27.47
-29.29
-32.01
-35.67
-39.67
-42.28
-41.05
-33.68
-18.82
3.47
31.37
61.40
87.79
102.66
100.67
82.71
54.65
23.33
-5.87
-29.23
-44.23
-49.29
-43.92
-29.02
-7.66
15.04
33.33
43.07
43.30
36.18
25.79
16.29
10.59
9.39
11.42
14.61
17.42
19.23
19.78
18.60
15.05
9.02
1.28
-6.63
-12.97
-16.48
-16.70
-14.04
-9.18
-2.57
5.80
15.83
26.60
36.07
41.61
41.10
34.04
21.98
8.10
-4.05
-12.04
-15.38
-15.20
-13.43
-11.64
-10.40
-9.32
-7.77
-5.50
-3.03
-1.22
-0.73
-1.55
-2.83
-3.37
-2.33
0.33
3.69
6.23
6.27
2.64
-4.99
-15.82
-28.07
-39.36
-47.56
-51.44
-50.94
-46.84
-40.19
-31.70
-21.44
-9.42
3.93
17.44
29.47
38.50
43.84
45.88
45.77
45.04
44.73
45.25
46.50
48.09
49.55
50.28
49.64
45.80
37.79
25.33
9.09
-9.28
-27.67
-44.17
-57.59
-67.64
-74.62
-78.72
-79.91
-77.83
-72.25
-63.41
-52.33
-40.48
-29.37
-20.08
-12.88
-7.52
-3.47
-0.26
2.42
4.68
6.63
8.38
10.12
12.08
14.43
17.18
20.21
23.32
26.24
28.74
30.69
32.04
32.87
33.31
33.51
33.57
33.54
33.40
33.12
32.62
31.89
31.00
30.06
29.17
28.42
27.85
27.41
27.04
26.72
26.38
26.04
25.69
25.35
25.02
24.66
24.23
23.66
22.87
21.90
20.87
20.01
19.61
19.91
21.05
22.97
25.48
28.22
30.73
32.55
33.24
32.51
30.28
26.78
22.50
18.16
14.46
11.89
10.55
10.15
10.05
9.61
8.40
6.38
3.82
1.12
-1.52
-4.20
-7.18
-10.64
-14.32
-17.57
-19.43
-19.18
-16.50
-11.53
-4.59
4.15
14.52
25.79
35.89
41.37
38.43
24.73
0.94
-29.14
-60.12
-87.40
-108.87
-124.95
-137.00
-145.52
-149.40
-146.75
-136.81
-121.17
-103.56
-87.97
-76.56
-68.65
-61.46
-51.97
-38.76
-22.65
-6.05
8.45
19.38
26.83
32.12
36.82
41.94
47.63
53.37
58.55
62.93
66.71
70.26
73.68
76.51
77.90
77.00
73.45
67.61
60.39
52.91
46.05
40.30
35.83
32.79
31.30
31.36
32.47
33.40
32.31
27.29
17.14
1.93
-17.07
-37.74
-57.83
-75.45
-89.13
-97.88
-101.14
-99.03
-92.52
-83.41
-73.83
-65.54
-59.32
-54.87
-51.23
-47.39
-42.79
-37.40
-31.39
-24.78
-17.35
-8.80
0.89
11.27
21.47
30.46
37.55
42.64
46.25
49.35
53.03
58.24
65.54
74.99
85.86
96.46
104.24
106.38
100.81
87.10
66.77
42.71
18.06
-4.95
-25.50
-43.82
-60.46
-75.49
-88.38
-98.34
-104.99
-108.68
-110.44
-111.53
-112.90
-114.81
-116.73
-117.66
-116.41
-112.08
-104.35
-93.60
-80.74
-66.92
-53.18
-40.26
-28.52
-18.05
-8.78
-0.60
6.52
12.63
17.76
22.03
25.65
28.85
31.81
34.52
36.75
38.24
38.78
38.43
37.54
36.61
36.08
36.13
36.62
37.15
37.34
36.98
36.17
35.23
34.53
34.27
34.32
34.30
33.71
32.16
29.47
25.76
21.31
16.49
11.69
7.26
3.50
0.64
-1.19
-2.07
-2.19
-1.91
-1.57
-1.42
-1.61
-2.15
-3.03
-4.26
-5.85
-7.79
-10.00
-12.24
-14.23
-15.62
-16.25
-16.07
-15.25
-14.01
-12.55
-11.02
-9.51
-8.14
-7.07
-6.46
-6.35
-6.60
-6.87
-6.79
-6.07
-4.67
-2.77
-0.71
1.23
2.87
4.16
5.19
6.06
6.86
7.61
8.31
8.86
9.15
9.13
8.84
8.36
7.83
7.32
6.82
6.25
5.54
4.66
3.67
2.62
1.53
0.42
-0.64
-1.43
-1.65
-0.97
0.80
3.54
6.86
10.19
13.00
14.98
16.08
16.46
16.45
16.38
16.54
17.17
18.40
20.30
22.77
25.54
28.22
30.33
31.57
31.88
31.55
31.08
30.92
31.26
31.91
32.40
32.29
31.44
30.08
28.66
27.56
26.83
26.19
25.26
23.84
22.01
20.09
18.43
17.16
16.18
15.25
14.12
12.61
10.72
8.51
6.10
3.60
1.00
-1.84
-5.22
-9.62
-15.55
-23.51
-33.86
-46.69
-61.71
-78.17
-94.81
-110.02
-122.13
-129.77
-132.20
-129.37
-121.89
-110.72
-97.11
-82.42
-67.98
-54.98
-44.14
-35.57
-28.81
-23.09
-17.67
-12.18
-6.62
-1.25
3.67
8.06
11.92
15.24
17.93
19.82
20.80
20.90
20.33
19.38
18.29
17.16
15.97
14.70
13.34
11.93
10.51
9.14
7.84
6.62
5.52
4.51
3.44
2.13
0.44
-1.63
-3.89
-5.99
-7.63
-8.68
-9.21
-9.38
-9.25
-8.76
-7.66
-5.74
-2.94
0.64
4.75
9.22
13.99
19.10
24.62
30.58
37.01
43.95
51.45
59.49
67.88
76.13
83.57
89.51
93.48
95.38
95.48
94.32
92.59
91.08
90.47
91.00
92.20
92.70
90.57
83.99
71.90
54.23
31.66
5.18
-24.30
-55.84
-88.07
-118.96
-145.86
-166.09
-177.79
-180.44
-174.87
-162.81
-146.31
-127.27
-107.35
-87.94
-70.15
-54.73
-42.03
-31.92
-23.91
-17.22
-10.98
-4.43
2.89
10.94
19.21
26.89
33.14
37.45
39.79
40.54
40.31
39.61
38.75
37.77
36.58
35.10
33.42
31.70
30.13
28.77
27.54
26.28
24.88
23.41
22.05
21.01
20.42
20.20
20.09
19.75
18.92
17.44
15.36
12.83
10.15
7.66
5.69
4.46
4.04
4.31
5.02
5.82
6.42
6.58
6.24
5.41
4.22
2.81
1.31
-0.16
-1.52
-2.72
-3.71
-4.46
-4.94
-5.14
-5.09
-4.78
-4.15
-3.07
-1.39
0.93
3.79
6.81
9.51
11.37
12.05
11.49
9.90
7.69
5.24
2.81
0.50
-1.71
-3.86
-5.95
-7.91
-9.59
-10.79
-11.33
-11.06
-9.91
-7.97
-5.46
-2.75
-0.29
1.58
2.65
2.89
2.49
1.70
0.78
-0.00
-0.48
-0.59
-0.38
0.00
0.36
0.54
0.48
0.16
-0.43
-1.35
-2.66
-4.42
-6.53
-8.83
-11.05
-12.99
-14.45
-15.26
-15.19
-14.01
-11.61
-8.08
-3.83
0.58
4.61
7.98
10.66
12.83
14.65
16.12
17.13
17.50
17.16
16.23
14.96
13.66
12.56
11.73
11.14
10.64
10.10
9.46
8.67
7.75
6.74
5.66
4.55
3.48
2.51
1.68
1.03
0.52
0.12
-0.23
-0.55
-0.85
-1.13
-1.34
-1.49
-1.55
-1.54
-1.47
-1.43
-1.51
-1.78
-2.23
-2.73
-3.10
-3.18
-2.88
-2.21
-1.28
-0.23
0.84
1.79
2.51
2.92
2.98
2.73
2.33
1.96
1.80
1.89
2.15
2.43
2.59
2.58
2.47
2.31
2.13
1.85
1.38
0.69
-0.09
-0.73
-0.95
-0.65
0.10
1.07
2.02
2.86
3.65
4.52
5.55
6.63
7.58
8.27
8.75
9.24
10.07
11.42
13.25
15.27
17.11
18.47
19.25
19.57
19.64
19.66
19.73
19.81
19.74
19.30
18.23
16.33
13.49
9.73
5.29
0.53
-4.13
-8.30
-11.74
-14.41
-16.36
-17.67
-18.41
-18.63
-18.35
-17.64
-16.60
-15.35
-14.03
-12.79
-11.81
-11.27
-11.30
-11.88
-12.84
-13.86
-14.56
-14.68
-14.19
-13.25
-12.17
-11.23
-10.52
-9.98
-9.44
-8.77
-7.98
-7.18
-6.52
-6.08
-5.82
-5.66
-5.47
-5.21
-4.94
-4.77
-4.81
-5.10
-5.63
-6.28
-6.88
-7.27
-7.33
-7.09
-6.69
-6.34
-6.23
-6.40
-6.74
-7.04
-7.11
-6.86
-6.36
-5.79
-5.33
-5.08
-5.05
-5.13
-5.14
-4.92
-4.42
-3.67
-2.86
-2.22
-1.92
-2.01
-2.42
-2.94
-3.41
-3.69
-3.80
-3.80
-3.74
-3.63
-3.42
-3.09
-2.62
-2.07
-1.53
-1.06
-0.66
-0.31
0.02
0.34
0.62
0.79
0.81
0.66
0.48
0.42
0.66
1.28
2.21
3.28
4.29
5.06
5.51
5.67
5.58
5.33
4.97
4.61
4.35
4.27
4.44
4.82
5.36
5.99
6.69
7.43
8.15
8.75
9.06
9.00
8.58
7.91
7.19
6.51
5.83
4.95
3.63
1.73
-0.70
-3.35
-5.75
-7.48
-8.37
-8.62
-8.72
-9.30
-10.79
-13.33
-16.80
-21.07
-26.18
-32.33
-39.80
-48.76
-59.34
-71.93
-87.29
-106.34
-129.52
-156.21
-184.40
-211.09
-233.15
-248.17
-254.98
-253.52
-244.52
-229.20
-209.13
-186.30
-162.94
-141.08
-121.88
-105.24
-89.88
-73.92
-55.65
-34.14
-9.32
18.16
47.25
76.74
105.26
131.27
153.04
168.77
177.05
177.34
170.33
157.94
142.93
128.11
115.63
106.51
100.67
97.27
95.19
93.43
91.19
87.93
83.38
77.71
71.64
66.33
63.03
62.51
64.62
68.29
72.04
74.59
75.49
75.16
74.46
74.10
74.10
73.86
72.57
69.80
65.83
61.43
57.41
54.08
51.11
47.80
43.64
38.74
33.86
30.01
27.82
27.16
27.06
26.12
23.13
17.57
9.77
0.79
-7.98
-15.24
-20.05
-21.95
-21.01
-17.67
-12.64
-6.66
-0.36
5.89
12.06
18.46
25.62
34.21
44.70
57.06
70.49
83.28
93.21
98.05
96.47
88.50
75.68
60.50
45.55
32.75
22.90
15.73
10.26
5.32
-0.20
-7.10
-15.89
-26.68
-39.18
-52.73
-66.40
-79.19
-90.27
-99.16
-105.80
-110.47
-113.65
-115.73
-116.92
-117.20
-116.42
-114.44
-111.23
-106.96
-101.89
-96.44
-91.10
-86.46
-83.14
-81.64
-82.18
-84.67
-88.59
-93.15
-97.37
-100.16
-100.45
-97.32
-90.21
-79.09
-64.56
-47.80
-30.26
-13.37
1.70
14.22
23.86
30.60
34.67
36.53
36.75
35.99
34.77
33.47
32.25
31.15
30.21
29.57
29.44
29.97
31.13
32.68
34.26
35.51
36.21
36.31
35.78
34.65
32.92
30.58
27.72
24.49
21.09
17.65
14.22
10.75
7.16
3.47
-0.24
-3.76
-6.93
-9.77
-12.46
-15.42
-19.06
-23.54
-28.51
-33.08
-36.00
-36.06
-32.54
-25.40
-15.31
-3.35
9.29
21.53
32.54
41.73
48.71
53.29
55.56
55.83
54.57
52.28
49.43
46.39
43.47
40.98
39.17
38.26
38.34
39.36
41.06
43.07
44.90
46.15
46.53
45.94
44.45
42.26
39.58
36.67
33.73
30.93
28.40
26.13
23.98
21.75
19.24
16.38
13.28
10.20
7.44
5.11
3.06
0.91
-1.80
-5.39
-9.78
-14.41
-18.40
-20.68
-20.33
-16.83
-10.21
-1.05
9.58
20.44
30.34
38.39
44.19
47.73
49.32
49.30
47.97
45.52
42.18
38.25
34.21
30.56
27.71
25.87
24.97
24.81
25.08
25.56
26.08
26.55
26.85
26.82
26.32
25.22
23.50
21.27
18.71
16.00
13.28
10.61
7.96
5.24
2.46
-0.37
-3.14
-5.77
-8.29
-10.88
-13.79
-17.27
-21.30
-25.40
-28.75
-30.33
-29.34
-25.53
-19.25
-11.33
-2.73
5.68
13.32
19.76
24.65
27.65
28.50
27.24
24.21
20.08
15.57
11.34
7.81
5.16
3.43
2.58
2.51
3.08
4.07
5.21
6.21
6.84
6.93
6.48
5.56
4.28
2.73
0.94
-1.10
-3.43
-5.97
-8.59
-11.07
-13.25
-15.10
-16.75
-18.41
-20.33
-22.66
-25.41
-28.40
-31.24
-33.43
-34.32
-33.37
-30.22
-24.94
-17.97
-10.07
-2.05
5.37
11.78
16.99
20.98
23.72
25.19
25.32
24.14
21.82
18.75
15.47
12.59
10.61
9.81
10.18
11.45
13.24
15.17
16.96
18.48
19.70
20.60
21.17
21.36
21.11
20.37
19.15
17.55
15.69
13.75
11.90
10.22
8.68
7.14
5.42
3.30
0.63
-2.69
-6.65
-11.11
-15.74
-20.04
-23.38
-25.16
-24.99
-22.75
-18.68
-13.31
-7.37
-1.62
3.20
6.55
8.08
7.77
5.88
2.85
-0.74
-4.39
-7.70
-10.42
-12.45
-13.78
-14.47
-14.59
-14.23
-13.47
-12.40
-11.13
-9.80
-8.56
-7.52
-6.73
-6.23
-6.05
-6.21
-6.75
-7.66
-8.89
-10.31
-11.75
-13.04
-14.10
-14.97
-15.80
-16.77
-18.04
-19.68
-21.71
-24.06
-26.64
-29.24
-31.57
-33.16
-33.49
-32.08
-28.70
-23.42
-16.68
-9.18
-1.69
5.08
10.64
14.73
17.27
18.32
18.04
16.65
14.43
11.74
8.98
6.55
4.72
3.64
3.29
3.54
4.24
5.25
6.40
7.50
8.36
8.79
8.73
8.19
7.26
6.05
4.64
3.10
1.50
-0.06
-1.50
-2.77
-3.97
-5.25
-6.78
-8.63
-10.69
-12.76
-14.56
-15.95
-16.95
-17.76
-18.73
-20.15
-22.17
-24.71
-27.35
-29.45
-30.29
-29.33
-26.29
-21.32
-14.89
-7.68
-0.39
6.33
12.01
16.32
19.10
20.34
20.21
18.93
16.88
14.40
11.83
9.48
7.59
6.34
5.81
5.96
6.67
7.71
8.87
9.93
10.74
11.15
11.07
10.43
9.23
7.54
5.55
3.48
1.58
0.01
-1.25
-2.36
-3.57
-5.09
-6.97
-9.11
-11.29
-13.26
-14.85
-16.05
-16.96
-17.79
-18.78
-20.13
-21.90
-23.99
-26.13
-27.86
-28.64
-27.95
-25.44
-21.00
-14.85
-7.51
0.26
7.64
13.94
18.72
21.86
23.47
23.78
22.99
21.25
18.76
15.82
12.87
10.43
8.88
8.34
8.64
9.42
10.29
11.00
11.45
11.64
11.57
11.18
10.35
8.99
7.10
4.83
2.44
0.20
-1.67
-3.10
-4.17
-5.07
-6.02
-7.16
-8.54
-10.07
-11.64
-13.11
-14.43
-15.65
-16.86
-18.13
-19.51
-21.01
-22.66
-24.53
-26.66
-28.96
-31.13
-32.59
-32.64
-30.68
-26.50
-20.35
-12.88
-4.93
2.71
9.49
15.05
19.23
21.91
23.04
22.67
21.05
18.61
15.87
13.39
11.55
10.51
10.20
10.40
10.89
11.48
12.06
12.57
12.97
13.17
13.11
12.77
12.19
11.41
10.46
9.28
7.79
5.98
3.92
1.84
-0.07
-1.65
-2.94
-4.08
-5.21
-6.43
-7.71
-8.96
-10.10
-11.13
-12.13
-13.23
-14.53
-16.14
-18.13
-20.47
-23.05
-25.56
-27.53
-28.37
-27.53
-24.72
-20.01
-13.80
-6.77
0.33
6.88
12.45
16.80
19.82
21.48
21.78
20.84
18.89
16.33
13.65
11.31
9.66
8.79
8.57
8.74
8.97
9.06
8.95
8.69
8.40
8.11
7.82
7.43
6.84
5.96
4.79
3.37
1.79
0.14
-1.44
-2.84
-4.02
-4.97
-5.77
-6.53
-7.34
-8.23
-9.21
-10.23
-11.28
-12.33
-13.39
-14.49
-15.72
-17.16
-18.92
-21.01
-23.30
-25.46
-26.99
-27.30
-25.97
-22.82
-18.00
-11.95
-5.28
1.35
7.37
12.32
15.93
18.07
18.80
18.29
16.85
14.81
12.55
10.41
8.65
7.39
6.61
6.18
5.96
5.85
5.82
5.94
6.21
6.56
6.78
6.62
5.93
4.70
3.16
1.61
0.28
-0.82
-1.88
-3.17
-4.88
-7.00
-9.30
-11.49
-13.33
-14.75
-15.86
-16.81
-17.76
-18.81
-20.01
-21.36
-22.79
-24.11
-24.96
-24.85
-23.34
-20.16
-15.41
-9.48
-3.00
3.36
9.01
13.53
16.73
18.55
19.08
18.48
17.00
14.99
12.78
10.71
9.05
7.91
7.29
7.05
6.98
6.96
6.93
6.94
7.06
7.30
7.57
7.67
7.41
6.65
5.43
3.89
2.20
0.54
-1.05
-2.57
-4.09
-5.62
-7.12
-8.54
-9.83
-11.01
-12.10
-13.15
-14.23
-15.40
-16.75
-18.37
-20.25
-22.27
-24.10
-25.25
-25.20
-23.52
-20.05
-14.96
-8.70
-1.92
4.70
10.56
15.23
18.45
20.19
20.55
19.76
18.10
15.95
13.67
11.61
10.02
9.03
8.62
8.64
8.89
9.22
9.58
9.95
10.37
10.79
11.08
11.08
10.64
9.71
8.34
6.69
4.98
3.37
1.95
0.73
-0.42
-1.64
-3.04
-4.67
-6.44
-8.25
-9.94
-11.44
-12.76
-13.99
-15.27
-16.75
-18.53
-20.56
-22.59
-24.10
-24.44
-23.03
-19.59
-14.33
-7.91
-1.21
4.98
10.10
13.98
16.61
18.09
18.48
17.83
16.26
14.04
11.55
9.20
7.34
6.12
5.55
5.48
5.77
6.31
7.06
8.00
9.09
10.20
11.12
11.61
11.46
10.60
9.09
7.14
5.01
2.94
1.05
-0.62
-2.13
-3.57
-5.01
-6.45
-7.88
-9.29
-10.69
-12.10
-13.58
-15.20
-17.03
-19.10
-21.32
-23.50
-25.22
-25.94
-25.12
-22.47
-18.03
-12.25
-5.83
0.52
6.24
11.02
14.72
17.31
18.77
19.07
18.28
16.59
14.35
11.97
9.85
8.28
7.35
6.96
6.94
7.08
7.24
7.37
7.49
7.60
7.58
7.31
6.65
5.56
4.16
2.62
1.12
-0.27
-1.58
-2.90
-4.33
-5.93
-7.65
-9.43
-11.12
-12.60
-13.74
-14.52
-15.07
-15.65
-16.60
-18.20
-20.50
-23.21
-25.76
-27.42
-27.54
-25.71
-21.91
-16.46
-9.99
-3.17
3.33
9.03
13.62
16.98
19.10
20.02
19.85
18.73
16.89
14.62
12.28
10.21
8.71
7.92
7.86
8.42
9.42
10.63
11.81
12.77
13.36
13.51
13.24
12.61
11.70
10.56
9.23
7.72
6.11
4.52
3.10
1.98
1.17
0.57
0.04
-0.59
-1.41
-2.44
-3.67
-5.06
-6.48
-7.69
-8.28
-7.76
-5.64
-1.69
4.00
10.98
18.57
26.09
32.98
38.88
43.56
46.82
48.49
48.46
46.89
44.19
40.98
37.96
35.59
34.03
33.15
32.70
32.44
32.23
31.99
31.59
30.88
29.66
27.85
25.45
22.56
19.32
15.89
12.39
8.98
5.73
2.66
-0.40
-3.65
-7.29
-11.33
-15.67
-20.16
-24.71
-29.28
-33.81
-38.11
-41.91
-44.95
-47.21
-48.96
-50.52
-52.03
-53.25
-53.67
-52.74
-50.27
-46.53
-42.15
-37.79
-33.92
-30.74
-28.32
-26.74
-26.16
-26.72
-28.39
-30.89
-33.71
-36.26
-38.04
-38.76
-38.41
-37.17
-35.37
-33.35
-31.36
-29.50
-27.71
-25.88
-23.90
-21.82
-19.81
-18.09
-16.88
-16.21
-15.95
-15.85
-15.63
-15.11
-14.27
-13.30
-12.52
-12.28
-12.87
-14.35
-16.49
-18.78
-20.52
-21.00
-19.71
-16.49
-11.65
-5.80
0.32
6.09
11.13
15.31
18.62
20.99
22.29
22.38
21.25
19.13
16.45
13.72
11.33
9.50
8.20
7.31
6.69
6.31
6.23
6.49
7.13
8.02
8.94
9.59
9.67
9.04
7.73
5.93
3.95
2.06
0.43
-0.92
-2.06
-3.11
-4.18
-5.41
-6.92
-8.76
-10.85
-12.89
-14.37
-14.66
-13.31
-10.17
-5.48
0.18
6.13
11.76
16.70
20.76
23.86
25.92
26.81
26.48
24.97
22.56
19.71
16.92
14.64
13.09
12.25
11.91
11.79
11.66
11.43
11.13
10.88
10.78
10.80
10.82
10.61
9.92
8.65
6.80
4.55
2.14
-0.20
-2.29
-4.09
-5.64
-7.06
-8.49
-10.11
-12.05
-14.31
-16.71
-18.84
-20.17
-20.14
-18.41
-14.96
-10.11
-4.40
1.51
7.04
11.78
15.46
17.95
19.20
19.22
18.11
16.11
13.60
11.01
8.74
7.06
6.07
5.68
5.72
6.01
6.40
6.79
7.12
7.34
7.37
7.17
6.68
5.88
4.76
3.35
1.73
0.05
-1.58
-3.04
-4.32
-5.50
-6.75
-8.22
-10.02
-12.10
-14.22
-15.97
-16.90
-16.62
-14.91
-11.86
-7.72
-2.92
2.10
6.92
11.17
14.54
16.82
17.87
17.75
16.66
14.89
12.79
10.65
8.72
7.15
6.05
5.39
5.11
5.04
5.03
5.02
5.00
5.01
5.02
4.90
4.48
3.60
2.22
0.49
-1.36
-3.05
-4.46
-5.58
-6.54
-7.50
-8.63
-10.08
-11.92
-14.10
-16.38
-18.32
-19.36
-18.95
-16.81
-13.03
-8.05
-2.53
2.86
7.65
11.58
14.59
16.71
17.91
18.18
17.52
16.05
14.04
11.86
9.85
8.28
7.26
6.78
6.72
6.95
7.29
7.60
7.75
7.63
7.18
6.38
5.30
4.08
2.86
1.78
0.89
0.11
-0.72
-1.77
-3.17
-4.85
-6.68
-8.43
-9.91
-11.05
-11.88
-12.53
-13.12
-13.83
-14.71
-15.78
-16.85
-17.61
-17.57
-16.26
-13.39
-8.96
-3.40
2.58
8.20
12.80
16.04
17.92
18.71
18.74
18.30
17.52
16.45
15.10
13.54
11.96
10.54
9.44
8.70
8.27
8.05
7.97
8.07
8.37
8.84
9.30
9.46
9.05
7.94
6.26
4.26
2.31
0.63
-0.68
-1.70
-2.52
-3.24
-3.90
-4.49
-5.07
-5.70
-6.46
-7.42
-8.56
-9.83
-11.15
-12.51
-13.91
-15.40
-16.96
-18.42
-19.44
-19.58
-18.41
-15.73
-11.66
-6.66
-1.37
3.53
7.53
10.35
11.97
12.54
12.31
11.56
10.58
9.61
8.82
8.27
7.89
7.57
7.19
6.75
6.29
5.92
5.71
5.64
5.65
5.67
5.66
5.64
5.63
5.60
5.43
4.96
4.05
2.66
0.94
-0.92
-2.66
-4.15
-5.34
-6.30
-7.12
-7.86
-8.59
-9.38
-10.30
-11.43
-12.76
-14.10
-15.10
-15.31
-14.34
-11.98
-8.36
-3.84
0.99
5.56
9.39
12.21
13.94
14.64
14.45
13.52
12.03
10.23
8.38
6.75
5.55
4.85
4.58
4.57
4.62
4.61
4.47
4.20
3.81
3.34
2.79
2.20
1.63
1.13
0.75
0.45
0.11
-0.43
-1.32
-2.59
-4.12
-5.71
-7.14
-8.29
-9.14
-9.79
-10.39
-11.08
-11.93
-12.91
-13.91
-14.68
-14.84
-14.02
-11.97
-8.64
-4.33
0.43
5.05
9.04
12.10
14.17
15.28
15.54
15.02
13.83
12.11
10.06
7.89
5.76
3.79
2.04
0.56
-0.61
-1.37
-1.72
-1.69
-1.40
-1.02
-0.70
-0.50
-0.46
-0.56
-0.84
-1.30
-1.92
-2.67
-3.43
-4.13
-4.71
-5.23
-5.76
-6.36
-7.05
-7.76
-8.47
-9.18
-9.98
-10.93
-11.98
-12.90
-13.31
-12.77
-11.01
-8.02
-4.05
0.42
4.92
9.08
12.62
15.40
17.28
18.10
17.81
16.47
14.40
12.01
9.75
7.87
6.45
5.36
4.45
3.60
2.86
2.31
2.03
2.03
2.20
2.41
2.50
2.36
1.92
1.20
0.20
-0.99
-2.29
-3.58
-4.77
-5.82
-6.78
-7.74
-8.84
-10.17
-11.76
-13.51
-15.21
-16.58
-17.24
-16.88
-15.29
-12.42
-8.49
-3.91
0.83
5.26
9.07
12.07
14.22
15.50
15.88
15.36
14.00
11.98
9.61
7.28
5.30
3.81
2.83
2.23
1.86
1.59
1.36
1.17
1.05
1.04
1.16
1.36
1.50
1.42
0.97
0.09
-1.13
-2.52
-3.86
-5.03
-6.02
-6.96
-7.96
-9.08
-10.31
-11.60
-12.86
-14.00
-14.86
-15.13
-14.48
-12.65
-9.55
-5.44
-0.78
3.88
8.06
11.47
13.97
15.57
16.32
16.25
15.45
14.03
12.12
9.92
7.63
5.51
3.75
2.51
1.84
1.65
1.79
2.09
2.44
2.76
3.03
3.19
3.15
2.85
2.24
1.38
0.35
-0.73
-1.82
-2.91
-4.04
-5.23
-6.43
-7.59
-8.63
-9.57
-10.50
-11.53
-12.75
-14.10
-15.36
-16.14
-16.04
-14.75
-12.18
-8.52
-4.19
0.28
4.37
7.72
10.17
11.74
12.55
12.75
12.43
11.65
10.46
8.94
7.28
5.63
4.13
2.86
1.85
1.09
0.63
0.47
0.57
0.85
1.16
1.40
1.54
1.57
1.51
1.33
0.96
0.33
-0.57
-1.64
-2.77
-3.87
-4.93
-5.99
-7.07
-8.16
-9.22
-10.24
-11.23
-12.22
-13.09
-13.54
-13.19
-11.68
-8.88
-4.96
-0.37
4.29
8.49
11.81
14.07
15.22
15.33
14.55
13.07
11.13
8.99
6.89
5.01
3.46
2.31
1.57
1.25
1.27
1.51
1.83
2.10
2.20
2.11
1.88
1.54
1.12
0.58
-0.14
-1.06
-2.18
-3.43
-4.72
-6.02
-7.29
-8.55
-9.83
-11.12
-12.37
-13.48
-14.25
-14.49
-13.94
-12.42
-9.85
-6.37
-2.26
2.04
6.09
9.55
12.20
13.97
14.87
14.96
14.33
13.06
11.30
9.27
7.18
5.30
3.77
2.71
2.09
1.84
1.85
2.01
2.22
2.40
2.49
2.44
2.21
1.75
1.07
0.19
-0.83
-1.94
-3.09
-4.28
-5.50
-6.73
-7.92
-9.02
-10.03
-11.00
-12.03
-13.15
-14.26
-15.05
-15.08
-13.99
-11.58
-7.99
-3.61
1.03
5.48
9.43
12.70
15.18
16.76
17.31
16.79
15.27
13.03
10.46
7.97
5.86
4.28
3.23
2.62
2.34
2.25
2.27
2.31
2.32
2.30
2.26
2.21
2.10
1.86
1.36
0.53
-0.69
-2.23
-3.97
-5.72
-7.29
-8.59
-9.64
-10.57
-11.55
-12.69
-14.03
-15.42
-16.63
-17.34
-17.23
-16.11
-13.89
-10.66
-6.64
-2.14
2.46
6.80
10.56
13.51
15.54
16.58
16.64
15.76
14.06
11.74
9.09
6.46
4.19
2.54
1.57
1.18
1.17
1.34
1.54
1.74
1.92
2.04
2.03
1.79
1.27
0.48
-0.50
-1.56
-2.62
-3.63
-4.57
-5.43
-6.24
-7.04
-7.88
-8.80
-9.85
-11.01
-12.26
-13.47
-14.44
-14.89
-14.48
-12.96
-10.20
-6.35
-1.78
3.02
7.54
11.37
14.26
16.08
16.80
16.44
15.14
13.14
10.79
8.52
6.67
5.45
4.88
4.77
4.84
4.83
4.64
4.31
3.97
3.78
3.75
3.78
3.65
3.16
2.20
0.81
-0.85
-2.57
-4.17
-5.56
-6.72
-7.72
-8.66
-9.62
-10.68
-11.83
-12.98
-13.92
-14.37
-14.02
-12.60
-10.01
-6.29
-1.75
3.16
7.89
11.95
14.98
16.84
17.55
17.25
16.09
14.26
11.91
9.30
6.73
4.51
2.88
1.93
1.54
1.51
1.62
1.74
1.86
2.01
2.18
2.27
2.15
1.72
1.01
0.12
-0.83
-1.79
-2.81
-3.98
-5.36
-6.89
-8.42
-9.82
-11.05
-12.20
-13.39
-14.62
-15.73
-16.35
-16.06
-14.55
-11.75
-7.89
-3.36
1.35
5.82
9.71
12.81
14.99
16.14
16.24
15.31
13.52
11.16
8.61
6.29
4.51
3.41
2.93
2.87
3.03
3.25
3.46
3.65
3.81
3.88
3.76
3.38
2.71
1.82
0.84
-0.12
-0.98
-1.78
-2.57
-3.41
-4.36
-5.44
-6.64
-7.87
-9.04
-10.00
-10.69
-11.15
-11.52
-12.02
-12.83
-13.96
-15.26
-16.40
-16.99
-16.68
-15.26
-12.63
-8.89
-4.29
0.77
5.80
10.30
13.85
16.23
17.40
17.47
16.60
15.00
12.90
10.53
8.13
5.98
4.28
3.17
2.67
2.71
3.16
3.84
4.56
5.18
5.56
5.62
5.32
4.71
3.87
2.91
1.91
0.91
-0.09
-1.13
-2.22
-3.38
-4.58
-5.81
-7.02
-8.20
-9.28
-10.20
-10.89
-11.36
-11.68
-11.98
-12.41
-13.08
-13.98
-14.99
-15.90
