1497439238.00
64.000000
-0.00
-0.00
-0.00
-0.00
-0.00
-0.00
-0.00
-0.00
-0.00
-0.00
0.00
0.01
0.01
-0.00
-0.03
-0.05
-0.05
0.00
0.13
0.36
0.66
1.01
1.37
1.72
2.06
2.40
2.79
3.24
3.80
4.42
5.06
5.66
6.20
6.68
7.15
7.68
8.31
9.14
10.09
11.04
11.88
12.56
13.14
13.76
14.65
15.96
17.91
20.32
22.90
25.38
27.58
29.57
31.68
34.32
37.81
42.54
48.15
54.10
59.83
64.97
69.58
74.14
79.34
85.71
93.76
103.00
112.62
121.73
129.77
136.75
143.30
150.75
157.77
166.64
177.95
191.79
206.97
220.57
228.25
225.36
208.53
176.87
132.76
80.05
23.07
-34.94
-92.44
-149.16
-205.23
-260.37
-313.74
-363.87
-409.83
-450.91
-486.50
-515.74
-537.23
-549.22
-549.96
-538.37
-514.21
-478.67
-433.88
-382.45
-327.02
-269.84
-212.63
-156.66
-102.95
-52.37
-5.90
35.58
71.43
101.35
125.50
144.37
158.69
169.16
176.39
180.78
182.60
182.06
179.44
175.09
169.43
162.89
155.83
148.49
140.98
133.38
125.68
117.93
110.21
102.60
95.20
88.07
81.24
74.69
68.39
62.32
56.48
50.89
45.63
40.75
36.28
32.21
28.44
24.88
21.42
18.04
14.79
11.82
9.27
7.20
5.59
4.24
2.94
1.45
-0.27
-2.12
-3.85
-5.19
-5.95
-6.22
-6.27
-6.50
-7.23
-8.57
-10.32
-12.07
-13.39
-14.05
-14.09
-13.83
-13.65
-13.92
-14.92
-16.80
-19.58
-22.93
-25.97
-27.29
-25.41
-19.43
-9.64
2.33
14.09
23.40
29.11
31.42
31.52
30.74
29.87
28.91
27.47
25.21
22.28
19.22
16.64
14.89
13.86
13.14
12.24
10.84
8.98
6.94
5.13
3.88
3.32
3.34
3.63
3.83
3.74
3.33
2.77
2.26
1.95
1.85
1.97
2.48
3.74
6.19
10.07
15.14
20.60
25.36
28.43
29.33
28.24
25.81
22.84
19.90
17.18
14.56
11.85
8.97
6.00
3.26
0.81
-1.34
-3.29
-5.17
-7.11
-9.04
-10.85
-12.43
-13.72
-14.82
-15.79
-16.68
-17.43
-17.86
-17.81
-17.24
-16.32
-15.31
-14.55
-14.18
-14.17
-14.24
-14.10
-13.53
-12.50
-11.21
-9.99
-9.16
-8.95
-9.43
-10.40
-11.34
-11.48
-10.01
-6.38
-0.69
6.24
13.07
18.39
21.27
21.48
19.51
16.22
12.42
8.68
5.30
2.43
0.20
-1.24
-1.80
-1.55
-0.68
0.47
1.66
2.71
3.63
4.49
5.38
6.32
7.20
7.84
7.97
7.35
5.90
3.77
1.33
-0.99
-2.86
-4.20
-5.28
-6.50
-8.32
-10.92
-14.17
-17.60
-20.67
-22.91
-24.22
-24.75
-24.98
-25.52
-26.97
-29.80
-34.04
-39.06
-43.57
-45.85
-44.33
-38.22
-27.89
-14.80
-0.99
11.66
21.96
29.55
34.68
37.75
39.01
38.55
36.50
33.25
29.48
26.02
23.50
22.09
21.52
21.26
20.77
19.85
18.60
17.39
16.59
16.33
16.50
16.71
16.54
15.68
14.04
11.80
9.27
6.75
4.41
2.24
0.04
-2.40
-5.21
-8.41
-11.81
-15.13
-18.09
-20.50
-22.35
-23.85
-25.41
-27.54
-30.68
-35.02
-40.28
-45.56
-49.53
-50.71
-47.98
-40.98
-30.31
-17.36
-3.90
8.45
18.61
26.11
31.03
33.66
34.30
33.21
30.67
27.09
23.05
19.22
16.15
14.15
13.20
13.06
13.35
13.78
14.20
14.56
14.90
15.15
15.19
14.83
13.87
12.23
9.98
7.33
4.56
1.93
-0.42
-2.59
-4.82
-7.36
-10.32
-13.57
-16.77
-19.55
-21.68
-23.27
-24.65
-26.32
-28.70
-32.09
-36.46
-41.39
-46.04
-49.17
-49.47
-45.91
-38.24
-27.12
-14.06
-0.88
10.81
20.04
26.56
30.57
32.45
32.49
30.93
28.06
24.36
20.47
17.04
14.53
13.06
12.43
12.31
12.39
12.53
12.71
12.96
13.22
13.37
13.21
12.63
11.61
10.24
8.59
6.64
4.31
1.49
-1.82
-5.47
-9.20
-12.74
-15.92
-18.72
-21.30
-23.87
-26.75
-30.26
-34.70
-40.15
-46.21
-51.89
-55.66
-56.00
-51.88
-43.31
-31.42
-18.07
-5.18
5.87
14.47
20.67
24.83
27.29
28.21
27.71
25.99
23.47
20.67
18.15
16.29
15.28
15.06
15.42
16.06
16.70
17.22
17.59
17.88
18.13
18.22
17.89
16.78
14.60
11.27
6.99
2.22
-2.52
-6.81
-10.48
-13.71
-16.87
-20.44
-24.85
-30.37
-37.06
-44.63
-52.39
-59.21
-63.75
-64.83
-61.82
-54.92
-45.18
-34.13
-23.35
-14.08
-7.10
-2.80
-1.28
-2.50
-6.15
-11.62
-18.02
-24.31
-29.52
-32.91
-34.07
-32.90
-29.60
-24.63
-18.64
-12.18
-5.55
1.38
9.05
17.91
27.96
38.58
48.61
56.82
62.39
65.08
65.19
63.15
59.19
53.19
44.90
34.18
21.40
7.54
-5.85
-16.96
-24.13
-26.27
-23.27
-16.08
-6.57
3.12
11.22
16.87
20.20
21.90
22.63
22.56
21.34
18.55
14.25
9.17
4.52
1.38
0.17
0.45
1.30
1.82
1.67
1.16
0.92
1.47
2.79
4.30
5.04
4.14
1.12
-3.87
-10.15
-16.77
-22.89
-28.08
-32.60
-37.33
-43.42
-51.76
-62.33
-73.81
-83.64
-88.61
-85.92
-74.22
-54.13
-28.09
0.57
28.67
53.97
75.35
92.48
105.29
113.73
117.80
117.71
114.03
107.49
98.74
88.23
76.34
63.62
50.90
39.07
28.68
19.66
11.45
3.42
-4.58
-12.07
-18.23
-22.57
-25.33
-27.53
-30.45
-35.05
-41.52
-49.34
-57.55
-65.16
-71.20
-74.81
-75.23
-71.98
-65.09
-55.20
-43.44
-31.00
-18.83
-7.57
2.36
10.40
15.82
17.93
16.61
12.57
7.24
2.24
-1.37
-3.57
-5.28
-7.82
-12.12
-18.35
-25.85
-33.57
-40.54
-46.16
-50.16
-52.48
-53.14
-52.25
-50.20
-47.74
-45.69
-44.64
-44.66
-45.19
-45.44
-44.85
-43.45
-41.78
-40.46
-39.59
-38.52
-36.05
-30.98
-22.72
-11.61
1.27
14.55
27.03
37.93
46.84
53.59
58.11
60.39
60.63
59.22
56.69
53.60
50.40
47.39
44.79
42.78
41.48
40.93
41.09
41.86
43.15
44.92
47.19
49.92
53.05
56.42
59.84
63.21
66.53
69.90
73.51
77.47
81.65
85.68
88.96
90.87
90.98
89.23
85.94
81.59
76.57
70.96
64.62
57.37
49.28
40.74
32.26
24.29
17.08
10.76
5.59
1.92
0.07
0.00
1.17
2.71
3.84
4.23
3.97
3.29
2.16
0.18
-3.15
-7.89
-13.36
-18.26
-21.28
-21.87
-20.61
-19.09
-19.22
-22.42
-28.87
-37.42
-46.04
-52.65
-56.04
-56.43
-55.30
-54.80
-56.73
-62.01
-70.43
-80.70
-90.47
-96.23
-93.65
-78.69
-49.44
-7.75
40.33
86.16
121.43
141.23
145.51
138.31
125.32
111.45
99.39
89.93
83.03
78.69
76.87
76.83
76.57
73.04
63.17
45.31
20.21
-8.89
-37.08
-59.40
-72.44
-75.50
-70.66
-61.89
-53.51
-48.68
-48.46
-51.85
-56.62
-60.43
-61.82
-60.47
-57.03
-52.54
-47.86
-43.45
-39.24
-34.90
-30.04
-24.52
-18.48
-12.39
-6.81
-2.25
1.14
3.67
5.99
8.75
12.23
16.13
19.68
22.13
23.27
23.64
24.34
26.31
29.80
34.21
38.48
41.81
44.19
46.25
48.71
51.73
54.64
56.28
55.78
53.10
49.16
45.33
42.64
41.33
40.82
40.16
38.60
35.91
32.26
27.95
23.16
17.90
12.23
6.44
1.08
-3.20
-5.95
-7.20
-7.41
-7.40
-7.89
-9.30
-11.53
-14.08
-16.34
-17.90
-18.79
-19.45
-20.48
-22.35
-25.04
-28.13
-30.97
-33.06
-34.26
-34.82
-35.13
-35.42
-35.70
-35.77
-35.56
-35.26
-35.25
-35.87
-37.00
-38.03
-38.14
-36.77
-34.05
-30.82
-28.29
-27.42
-28.49
-30.92
-33.52
-34.91
-33.95
-29.92
-22.72
-12.76
-0.96
11.42
23.05
32.78
39.97
44.50
46.77
47.41
47.04
46.11
44.81
43.15
41.07
38.58
35.89
33.33
31.30
30.07
29.68
29.88
30.25
30.43
30.16
29.36
28.05
26.24
23.87
20.81
16.95
12.35
7.26
2.07
-2.83
-7.16
-10.89
-14.22
-17.43
-20.70
-24.01
-27.13
-29.80
-31.90
-33.58
-35.18
-37.11
-39.72
-43.15
-47.31
-51.92
-56.44
-60.09
-61.89
-60.93
-56.63
-49.06
-38.98
-27.74
-16.82
-7.43
-0.19
4.87
8.13
10.06
11.01
11.09
10.38
9.02
7.35
5.84
4.92
4.81
5.43
6.45
7.47
8.26
8.88
9.59
10.68
12.26
14.09
15.68
16.47
16.10
14.58
12.32
9.92
7.91
6.56
5.79
5.25
4.49
3.21
1.32
-1.00
-3.52
-6.00
-8.30
-10.45
-12.58
-14.80
-17.28
-20.23
-23.88
-28.35
-33.36
-38.20
-41.67
-42.55
-39.98
-33.96
-25.35
-15.61
-6.23
1.66
7.53
11.32
13.16
13.17
11.47
8.15
3.54
-1.83
-7.29
-12.17
-16.01
-18.60
-20.07
-20.76
-21.03
-21.16
-21.21
-21.10
-20.71
-20.03
-19.31
-18.99
-19.49
-21.08
-23.65
-26.81
-30.07
-32.99
-35.37
-37.24
-38.79
-40.20
-41.61
-43.03
-44.46
-45.83
-47.03
-47.94
-48.51
-48.83
-49.21
-50.07
-51.71
-53.93
-55.88
-56.19
-53.38
-46.51
-35.59
-21.62
-6.30
8.59
21.62
32.09
39.89
45.21
48.33
49.47
48.86
46.77
43.67
40.10
36.61
33.62
31.41
30.09
29.63
29.86
30.56
31.45
32.23
32.70
32.75
32.41
31.81
31.11
30.42
29.69
28.77
27.42
25.48
23.10
20.82
19.45
19.74
21.87
25.26
28.54
30.10
28.63
23.58
15.36
5.24
-4.95
-13.10
-17.27
-16.04
-8.93
3.40
19.25
36.31
52.32
65.64
75.54
82.08
85.79
87.25
86.91
85.02
81.76
77.39
72.32
67.06
62.09
57.66
53.75
50.00
45.85
40.79
34.46
26.78
17.91
8.06
-2.60
-14.07
-26.55
-40.31
-55.58
-72.30
-89.92
-107.33
-122.99
-135.33
-143.18
-146.18
-144.96
-140.84
-135.48
-130.33
-126.41
-124.09
-123.09
-122.47
-120.64
-115.60
-105.46
-89.04
-66.57
-39.88
-12.00
13.73
34.59
49.18
57.44
60.16
58.41
53.18
45.29
35.70
25.53
16.09
8.52
3.44
0.83
0.04
0.22
0.65
0.97
1.19
1.53
2.13
2.87
3.25
2.58
0.25
-4.01
-9.90
-16.60
-23.11
-28.58
-32.72
-35.83
-38.69
-42.21
-47.11
-53.70
-61.79
-70.53
-78.48
-83.76
-84.49
-79.32
-68.06
-51.79
-32.63
-13.09
4.69
19.36
30.45
38.07
42.46
43.86
42.47
38.72
33.39
27.62
22.68
19.63
19.05
20.90
24.67
29.53
34.75
39.86
44.80
49.78
55.06
60.58
65.83
69.90
71.84
71.05
67.52
61.79
54.56
46.31
36.99
26.13
13.18
-2.21
-19.90
-39.39
-59.85
-80.11
-98.53
-113.11
-121.88
-123.53
-118.06
-107.10
-93.46
-80.21
-69.66
-62.79
-59.25
-58.10
-58.43
-59.84
-62.25
-65.50
-68.95
-71.57
-72.33
-70.75
-67.13
-62.48
-57.94
-54.20
-51.16
-48.07
-43.94
-38.11
-30.55
-21.93
-13.25
-5.55
0.48
4.64
7.24
8.89
10.22
11.61
13.05
14.20
14.68
14.18
12.72
10.49
7.82
5.07
2.77
1.64
2.59
6.45
13.48
23.11
33.99
44.53
53.77
61.85
69.80
78.72
88.81
98.94
107.03
111.16
110.61
106.30
100.28
94.60
90.45
87.73
85.53
82.93
79.55
75.69
71.84
68.17
64.30
59.41
52.70
43.72
32.57
19.81
6.20
-7.52
-20.69
-32.86
-43.64
-52.79
-60.15
-65.67
-69.47
-71.88
-73.56
-75.35
-78.12
-82.26
-87.30
-91.79
-93.57
-90.54
-81.55
-66.97
-48.63
-29.23
-11.35
3.30
14.14
21.47
25.96
28.14
28.31
26.63
23.41
19.27
15.07
11.65
9.64
9.27
10.45
12.86
16.09
19.70
23.25
26.32
28.56
29.80
30.06
29.47
28.16
26.17
23.52
20.25
16.61
13.03
10.00
7.81
6.39
5.24
3.63
0.88
-3.50
-9.76
-17.98
-28.09
-39.65
-51.64
-62.26
-69.25
-70.52
-65.03
-53.26
-37.18
-19.53
-2.88
11.14
21.99
29.91
35.26
38.14
38.37
35.82
30.76
24.05
17.03
11.07
7.22
5.96
7.13
10.06
13.83
17.58
20.69
22.82
23.90
23.96
23.11
21.52
19.36
16.85
14.10
11.04
7.37
2.74
-3.06
-9.83
-16.99
-23.71
-29.30
-33.50
-36.59
-39.28
-42.43
-46.73
-52.40
-59.00
-65.44
-70.22
-71.97
-70.05
-64.92
-58.02
-51.16
-45.56
-41.23
-36.84
-30.43
-20.46
-6.96
8.25
21.92
30.72
32.39
26.61
15.00
0.49
-13.53
-24.10
-29.02
-26.97
-17.35
-0.43
22.37
48.41
73.86
94.47
106.65
108.66
101.22
87.36
71.41
57.71
49.19
46.68
48.97
53.76
58.67
62.26
64.30
65.44
66.55
68.19
70.37
72.90
75.78
79.49
84.82
92.42
102.37
114.07
126.47
138.54
149.70
159.92
169.43
178.38
186.51
193.11
197.36
198.69
197.10
193.23
188.07
182.55
177.03
171.14
163.91
154.15
141.10
124.80
106.28
87.28
69.69
55.07
44.13
36.68
31.74
28.05
24.39
20.06
14.88
9.15
3.38
-2.03
-7.06
-12.11
-17.97
-25.63
-35.96
-49.44
-65.84
-84.03
-102.02
-117.31
-127.58
-131.38
-128.63
-120.73
-109.99
-98.87
-89.12
-81.45
-75.57
-70.66
-65.95
-61.07
-56.12
-51.50
-47.57
-44.54
-42.35
-40.76
-39.55
-38.51
-37.52
-36.50
-35.34
-34.01
-32.61
-31.49
-31.22
-32.50
-35.94
-41.74
-49.62
-58.82
-68.36
-77.29
-84.99
-91.22
-96.12
-100.05
-103.39
-106.35
-108.82
-110.36
-110.21
-107.59
-101.94
-93.19
-81.82
-68.85
-55.55
-43.11
-32.39
-23.71
-16.96
-11.81
-7.92
-5.12
-3.40
-2.75
-3.04
-3.94
-4.93
-5.57
-5.58
-4.92
-3.74
-2.23
-0.55
1.19
2.83
4.15
4.90
4.82
3.83
1.89
-0.94
-4.56
-8.87
-13.73
-18.91
-24.22
-29.48
-34.54
-39.23
-43.21
-45.91
-46.68
-44.96
-40.56
-33.78
-25.38
-16.37
-7.71
-0.15
5.88
10.17
12.73
13.72
13.40
12.07
10.08
7.72
5.24
2.83
0.68
-1.04
-2.22
-2.78
-2.75
-2.24
-1.47
-0.75
-0.34
-0.45
-1.13
-2.25
-3.58
-4.81
-5.69
-6.11
-6.11
-6.02
-6.31
-7.51
-10.07
-14.03
-18.80
-23.22
-25.76
-25.03
-20.30
-11.76
-0.46
12.00
24.08
34.56
42.83
48.72
52.37
54.01
53.81
51.96
48.73
44.52
39.94
35.60
32.00
29.40
27.70
26.58
25.62
24.50
23.11
21.58
20.09
18.76
17.47
15.98
13.92
11.08
7.45
3.31
-0.88
-4.65
-7.74
-10.20
-12.38
-14.79
-17.94
-22.17
-27.57
-33.92
-40.67
-46.94
-51.57
-53.39
-51.52
-45.64
-36.24
-24.44
-11.70
0.57
11.36
20.17
26.90
31.68
34.71
36.20
36.38
35.56
34.14
32.55
31.13
30.10
29.45
29.06
28.76
28.35
27.74
26.87
25.71
24.26
22.60
20.82
19.05
17.35
15.65
13.76
11.51
8.79
5.73
2.57
-0.36
-2.90
-5.05
-7.08
-9.28
-11.97
-15.42
-19.79
-25.05
-30.89
-36.68
-41.37
-43.81
-43.04
-38.64
-30.98
-21.07
-10.28
0.10
9.19
16.58
22.18
26.11
28.44
29.31
28.94
27.69
26.07
24.59
23.67
23.44
23.79
24.41
24.98
25.26
25.15
24.72
24.09
23.38
22.64
21.79
20.66
19.08
16.93
14.31
11.46
8.70
6.32
4.40
2.82
1.33
-0.31
-2.20
-4.28
-6.34
-8.19
-9.78
-11.16
-12.61
-14.51
-17.25
-21.17
-26.28
-32.21
-38.10
-42.74
-44.87
-43.59
-38.68
-30.68
-20.78
-10.43
-0.91
6.93
12.78
16.72
19.08
20.18
20.33
19.74
18.63
17.29
16.03
15.14
14.84
15.21
16.12
17.35
18.62
19.67
20.32
20.48
20.17
19.45
18.40
17.07
15.51
13.73
11.69
9.42
6.99
4.51
2.20
0.23
-1.32
-2.52
-3.60
-4.78
-6.22
-7.90
-9.64
-11.21
-12.51
-13.62
-14.79
-16.33
-18.45
-21.23
-24.61
-28.48
-32.67
-36.92
-40.69
-43.22
-43.57
-41.04
-35.38
-27.11
-17.27
-7.24
1.74
8.86
13.83
16.73
17.89
17.63
16.26
14.09
11.51
9.01
7.05
5.97
5.85
6.49
7.50
8.52
9.39
10.16
10.97
11.96
13.01
13.83
14.04
13.39
11.85
9.61
7.01
4.38
1.97
-0.09
-1.79
-3.20
-4.41
-5.52
-6.64
-7.85
-9.15
-10.46
-11.66
-12.59
-13.21
-13.53
-13.66
-13.86
-14.45
-15.79
-18.16
-21.60
-25.72
-29.69
-32.39
-32.76
-30.20
-24.80
-17.35
-9.06
-1.12
5.61
10.72
14.23
16.30
17.12
16.82
15.52
13.39
10.71
7.87
5.26
3.17
1.77
1.03
0.80
0.95
1.34
1.93
2.67
3.51
4.28
4.80
4.86
4.34
3.27
1.80
0.17
-1.44
-2.88
-4.12
-5.18
-6.17
-7.20
-8.33
-9.57
-10.82
-11.95
-12.85
-13.43
-13.73
-13.85
-13.97
-14.31
-15.09
-16.50
-18.58
-21.15
-23.75
-25.68
-26.19
-24.71
-21.10
-15.67
-9.15
-2.44
3.61
8.44
11.72
13.41
13.64
12.63
10.70
8.28
5.77
3.56
1.91
0.98
0.73
1.06
1.75
2.56
3.25
3.61
3.53
3.03
2.19
1.18
0.15
-0.87
-1.94
-3.16
-4.58
-6.12
-7.58
-8.72
-9.38
-9.55
-9.37
-9.13
-9.11
-9.57
-10.67
-12.48
-14.99
-18.05
-21.24
-23.97
-25.52
-25.25
-22.87
-18.51
-12.69
-6.15
0.34
6.16
10.87
14.21
16.02
16.27
15.06
12.66
9.50
6.11
3.01
0.58
-1.00
-1.73
-1.84
-1.55
-1.12
-0.69
-0.31
-0.00
0.17
0.12
-0.34
-1.27
-2.67
-4.35
-6.06
-7.55
-8.69
-9.54
-10.26
-11.09
-12.32
-14.16
-16.75
-20.05
-23.68
-26.94
-28.93
-28.75
-25.88
-20.42
-13.06
-4.92
2.90
9.57
14.67
18.14
20.09
20.71
20.18
18.72
16.59
14.17
11.85
9.98
8.75
8.18
8.08
8.15
8.10
7.77
7.15
6.36
5.55
4.75
3.87
2.72
1.11
-1.00
-3.43
-5.85
-7.92
-9.46
-10.58
-11.59
-12.96
-15.08
-18.09
-21.77
-25.55
-28.65
-30.27
-29.82
-27.14
-22.52
-16.61
-10.30
-4.46
0.29
3.63
5.60
6.39
6.28
5.53
4.34
2.93
1.61
0.67
0.32
0.62
1.39
2.30
2.97
3.11
2.69
1.79
0.63
-0.68
-2.18
-4.13
-6.88
-10.77
-15.91
-22.17
-29.15
-36.39
-43.55
-50.55
-57.54
-64.76
-72.40
-80.53
-89.09
-97.94
-106.81
-115.21
-122.33
-127.13
-128.68
-126.47
-120.77
-112.54
-103.21
-94.08
-85.97
-79.06
-72.96
-67.10
-61.09
-54.86
-48.71
-43.03
-38.10
-33.88
-30.02
-26.03
-21.41
-15.85
-9.29
-1.86
6.12
14.18
21.76
28.27
33.19
36.35
38.03
38.91
39.87
41.68
44.79
49.25
54.85
61.34
68.58
76.48
84.89
93.48
101.71
108.97
114.79
118.98
121.66
123.21
124.07
124.74
125.67
127.39
130.41
135.11
141.51
149.19
157.21
164.32
169.14
170.48
167.51
159.79
147.39
130.86
111.23
89.90
68.35
47.92
29.50
13.47
-0.22
-11.84
-21.74
-30.20
-37.47
-43.80
-49.40
-54.37
-58.72
-62.30
-64.92
-66.38
-66.61
-65.72
-64.10
-62.26
-60.77
-60.00
-60.04
-60.65
-61.39
-61.98
-62.44
-63.19
-64.93
-68.36
-73.83
-81.14
-89.43
-97.30
-103.08
-105.17
-102.53
-94.93
-83.12
-68.61
-53.27
-38.78
-26.34
-16.50
-9.30
-4.47
-1.55
-0.05
0.58
0.96
1.66
3.20
5.91
9.87
14.95
20.89
27.43
34.34
41.53
48.94
56.52
64.14
71.50
78.25
83.92
88.03
90.14
89.91
87.19
82.05
74.87
66.20
56.65
46.76
36.93
27.41
18.28
9.42
0.48
-9.18
-20.23
-33.05
-47.56
-63.10
-78.70
-93.50
-106.91
-118.62
-128.17
-134.80
-137.36
-134.74
-126.43
-112.85
-95.40
-75.99
-56.47
-38.22
-21.95
-7.85
4.26
14.72
23.94
32.33
40.26
48.04
55.93
64.13
72.78
81.85
91.13
100.06
107.87
113.73
117.05
117.67
115.96
112.61
108.38
103.73
98.64
92.65
85.03
75.15
62.87
48.82
34.54
22.26
14.39
12.82
18.12
29.07
42.57
54.36
60.02
56.31
42.18
19.07
-9.53
-38.99
-64.71
-82.98
-91.54
-89.74
-78.48
-60.05
-37.73
-15.17
4.37
18.75
27.40
31.17
31.79
31.04
30.06
29.08
27.61
24.92
20.51
14.53
7.78
1.51
-3.08
-5.17
-4.71
-2.34
0.74
3.19
3.94
2.47
-1.09
-5.96
-11.01
-15.10
-17.57
-18.57
-19.17
-20.99
-25.60
-33.76
-45.02
-57.77
-69.77
-78.96
-84.18
-85.42
-83.63
-80.09
-75.68
-70.48
-63.81
-54.62
-42.17
-26.43
-8.23
11.05
29.91
47.17
62.15
74.51
84.06
90.54
93.66
93.32
89.86
84.21
77.66
71.53
66.68
63.24
60.57
57.57
53.18
46.80
38.48
28.86
18.83
9.12
0.18
-7.86
-14.97
-21.05
-25.88
-29.22
-31.05
-31.71
-31.93
-32.69
-34.97
-39.49
-46.48
-55.43
-65.09
-73.59
-78.87
-79.29
-74.16
-63.88
-49.77
-33.48
-16.55
-0.12
15.11
28.69
40.29
49.66
56.59
60.89
62.43
61.13
57.10
50.77
42.95
34.70
27.09
20.91
16.61
14.34
14.07
15.65
18.76
22.72
26.58
29.31
30.15
28.78
25.37
20.40
14.31
7.45
-0.04
-8.11
-16.69
-25.59
-34.45
-42.71
-49.62
-54.42
-56.56
-55.92
-52.93
-48.53
-43.90
-40.01
-37.33
-35.66
-34.31
-32.43
-29.49
-25.47
-20.85
-16.39
-12.81
-10.45
-9.14
-8.28
-7.12
-4.95
-1.43
3.28
8.67
13.96
18.50
21.85
23.95
25.02
25.43
25.47
25.28
24.81
23.95
22.56
20.54
17.70
13.79
8.54
1.93
-5.52
-12.58
-17.41
-18.14
-13.52
-3.50
10.61
26.41
41.20
52.67
59.49
61.34
58.75
52.71
44.34
34.69
24.71
15.17
6.53
-0.99
-7.53
-13.30
-18.50
-23.10
-26.88
-29.51
-30.80
-30.80
-29.84
-28.37
-26.77
-25.25
-23.86
-22.56
-21.42
-20.60
-20.37
-21.07
-23.07
-26.62
-31.74
-37.96
-44.21
-48.95
-50.50
-47.66
-40.15
-28.82
-15.35
-1.70
10.49
20.27
27.40
32.07
34.62
35.33
34.40
32.08
28.72
24.76
20.73
17.06
14.05
11.77
10.10
8.86
7.87
7.03
6.35
5.83
5.41
4.88
3.99
2.47
0.20
-2.74
-6.16
-9.87
-13.84
-18.26
-23.42
-29.39
-35.72
-41.31
-44.58
-44.01
-38.76
-29.03
-16.15
-2.08
11.19
22.22
30.33
35.48
37.94
37.99
35.86
31.80
26.30
20.12
14.19
9.37
6.23
4.83
4.81
5.51
6.18
6.24
5.35
3.45
0.74
-2.47
-5.83
-9.00
-11.77
-14.12
-16.20
-18.34
-20.98
-24.49
-29.06
-34.42
-39.74
-43.69
-44.73
-41.61
-33.90
-22.18
-8.05
6.35
19.00
28.50
34.34
36.79
36.59
34.58
31.48
27.86
24.18
20.89
18.43
17.02
16.69
17.09
17.63
17.67
16.79
14.91
12.29
9.34
6.39
3.60
0.87
-1.97
-5.09
-8.47
-12.01
-15.63
-19.36
-23.44
-28.14
-33.53
-39.15
-43.94
-46.42
-45.18
-39.39
-29.30
-16.15
-1.88
11.50
22.46
30.24
34.80
36.55
36.06
33.90
30.49
26.28
21.71
17.21
13.21
10.05
7.90
6.78
6.49
6.71
7.04
7.14
6.80
5.99
4.83
3.42
1.85
0.11
-1.90
-4.28
-7.09
-10.38
-14.22
-18.77
-24.04
-29.75
-35.13
-38.93
-39.72
-36.43
-28.87
-17.92
-5.30
6.98
17.24
24.57
28.86
30.52
30.10
28.06
24.71
20.34
15.31
10.22
5.72
2.38
0.48
-0.07
0.31
1.04
1.62
1.70
1.21
0.24
-1.07
-2.67
-4.59
-6.86
-9.50
-12.41
-15.49
-18.73
-22.23
-26.22
-30.75
-35.45
-39.32
-40.95
-38.99
-32.71
-22.43
-9.50
4.13
16.55
26.37
32.97
36.42
37.13
35.62
32.39
27.93
22.71
17.28
12.12
7.68
4.21
1.80
0.38
-0.31
-0.54
-0.60
-0.69
-0.90
-1.28
-1.82
-2.54
-3.47
-4.69
-6.24
-8.18
-10.50
-13.20
-16.24
-19.64
-23.34
-27.12
-30.48
-32.59
-32.43
-29.12
-22.37
-12.68
-1.37
9.80
19.14
25.47
28.26
27.49
23.31
15.88
5.52
-7.10
-20.78
-33.93
-45.00
-52.94
-57.43
-58.68
-57.02
-52.53
-44.95
-34.03
-20.02
-3.97
12.26
26.52
37.05
43.10
45.29
45.59
46.84
52.05
63.43
81.65
105.53
132.35
158.73
181.60
198.95
209.97
214.65
213.27
206.08
193.54
176.60
157.04
137.14
119.04
103.88
91.46
80.53
69.50
57.31
43.89
29.89
16.18
3.25
-8.97
-20.87
-32.68
-44.16
-54.57
-63.16
-69.60
-74.42
-78.95
-85.24
-95.84
-113.53
-140.82
-178.96
-226.64
-279.03
-327.98
-363.79
-377.77
-365.17
-326.94
-269.49
-202.62
-136.52
-79.05
-34.26
-2.38
19.18
34.48
48.03
63.99
85.71
115.25
153.02
197.43
245.03
291.03
330.65
360.85
381.63
396.03
408.56
422.83
439.55
456.03
467.30
468.54
457.26
434.30
403.04
367.80
332.12
297.79
265.06
233.36
202.15
171.39
141.48
113.07
86.80
63.15
42.33
24.39
9.56
-1.73
-8.89
-11.72
-10.98
-8.59
-7.39
-10.29
-19.26
-34.53
-54.68
-77.17
-99.53
-120.36
-139.87
-159.52
-181.16
-205.79
-232.86
-260.36
-285.40
-305.54
-319.75
-328.90
-335.58
-343.44
-356.35
-377.26
-407.00
-443.00
-479.06
-506.18
-514.85
-497.92
-453.08
-383.82
-298.71
-208.87
-124.91
-54.05
1.19
42.66
74.46
100.36
121.59
136.20
140.17
129.70
103.31
62.72
12.03
-44.55
-104.47
-167.28
-233.35
-301.83
-369.71
-432.61
-486.95
-531.80
-569.06
-601.52
-630.32
-653.20
-665.19
-661.09
-638.59
-599.71
-549.96
-495.81
-441.88
-389.77
-338.63
-286.95
-233.97
-180.12
-126.24
-72.73
-19.26
34.94
90.23
145.89
200.11
250.51
295.03
332.65
363.69
389.57
412.45
434.85
459.48
488.46
522.27
558.50
591.36
612.63
614.03
590.57
542.46
475.21
397.22
316.43
237.46
160.93
85.30
9.49
-65.38
-136.58
-201.67
-260.19
-313.46
-362.58
-406.09
-439.15
-455.21
-449.26
-420.86
-375.05
-320.37
-265.69
-217.07
-176.76
-143.90
-116.37
-92.13
-69.68
-47.71
-24.72
0.77
30.10
64.02
102.43
143.80
185.25
222.98
253.50
275.04
288.16
295.21
298.37
297.73
290.64
272.99
241.75
197.40
144.67
91.08
44.12
8.64
-14.46
-27.68
-35.18
-40.92
-47.34
-54.92
-62.26
-66.65
-64.77
-53.55
-30.75
4.58
51.46
106.45
163.43
214.02
249.20
261.82
249.20
214.59
166.33
115.12
70.39
37.52
17.22
6.87
2.72
1.49
0.91
-0.74
-5.21
-14.20
-28.93
-49.52
-74.78
-102.46
-129.62
-152.96
-169.10
-175.13
-169.11
-150.85
-122.16
-86.40
-47.51
-8.94
26.99
59.18
87.35
111.51
131.62
147.51
159.07
166.68
171.61
175.98
182.53
193.51
209.25
227.18
241.68
245.29
230.82
193.97
135.32
61.03
-18.47
-91.37
-147.84
-182.66
-195.86
-191.22
-173.39
-145.59
-108.80
-62.99
-9.33
48.33
103.43
148.63
178.24
190.16
186.13
170.52
148.32
123.43
97.78
71.42
43.56
13.66
-17.88
-49.88
-81.01
-110.72
-139.60
-168.82
-199.02
-228.92
-254.78
-271.30
-273.40
-258.63
-228.52
-188.41
-145.71
-107.26
-77.19
-56.02
-41.42
-29.77
-17.98
-4.46
10.73
26.56
41.98
56.62
71.13
86.94
105.73
128.66
155.77
185.73
215.96
243.14
263.95
275.70
276.87
267.28
248.10
221.39
189.30
153.47
114.61
72.88
28.61
-16.97
-61.45
-102.00
-136.26
-163.28
-183.64
-198.79
-210.00
-217.63
-221.08
-219.49
-212.69
-201.74
-188.62
-175.32
-162.84
-150.68
-137.26
-120.90
-100.91
-78.09
-54.40
-31.97
-12.13
5.02
20.32
34.87
49.36
63.85
77.96
91.27
103.59
114.86
125.04
133.84
140.82
145.58
148.03
148.46
147.54
146.05
144.62
143.61
143.11
142.98
142.95
142.73
141.97
140.47
138.17
135.35
132.54
130.40
129.39
129.57
130.56
131.65
132.02
130.96
128.03
122.94
115.58
105.96
94.26
80.89
66.50
51.93
37.99
25.34
14.36
5.06
-2.85
-9.78
-16.09
-21.93
-27.16
-31.51
-34.76
-36.94
-38.38
-39.61
-41.22
-43.58
-46.74
-50.34
-53.77
-56.37
-57.64
-57.46
-56.11
-54.34
-53.15
-53.50
-55.90
-60.12
-65.13
-69.35
-71.24
-69.88
-65.36
-58.65
-51.15
-44.06
-37.90
-32.59
-27.79
-23.43
-19.95
-18.16
-18.84
-22.26
-28.01
-35.13
-42.41
-48.75
-53.43
-56.12
-56.93
-56.29
-55.00
-54.26
-55.45
-59.73
-67.30
-76.73
-84.95
-88.07
-82.95
-68.74
-47.60
-23.94
-2.63
12.98
22.27
27.11
30.60
35.63
43.90
55.91
71.20
88.47
105.30
117.87
121.38
111.46
86.19
47.55
1.41
-44.20
-81.76
-106.67
-118.12
-118.54
-111.87
-101.91
-91.40
-82.00
-74.68
-70.14
-68.68
-69.94
-72.67
-74.96
-74.85
-71.07
-63.52
-53.21
-41.76
-30.57
-20.07
-9.53
2.60
17.86
36.77
58.42
80.63
100.61
115.89
124.78
126.47
120.88
108.34
89.52
65.62
38.33
9.65
-18.51
-44.64
-67.67
-86.68
-100.67
-108.45
-109.12
-102.65
-90.11
-73.59
-55.48
-37.80
-21.78
-7.90
3.77
13.15
20.15
24.80
27.52
29.24
31.15
34.28
39.10
45.36
52.21
58.55
63.49
66.68
68.35
69.09
69.54
70.00
70.33
69.97
68.24
64.60
58.92
51.45
42.74
33.37
23.78
14.14
4.52
-5.13
-14.79
-24.36
-33.62
-42.18
-49.39
-54.34
-56.09
-53.93
-47.72
-38.10
-26.38
-14.18
-2.98
6.28
13.16
17.64
19.85
20.01
18.51
16.00
13.37
11.56
11.24
12.60
15.28
18.58
21.70
24.01
25.19
25.14
23.92
21.65
18.41
14.24
9.13
2.97
-4.31
-12.73
-22.10
-32.02
-41.91
-51.25
-59.78
-67.61
-75.31
-83.59
-93.11
-104.05
-115.96
-127.76
-137.95
-145.14
-148.54
-148.34
-145.62
-141.99
-139.00
-137.55
-137.79
-139.23
-141.04
-142.22
-141.70
-138.12
-129.92
-115.53
-94.01
-65.59
-31.85
4.65
41.31
76.28
108.97
139.80
169.48
198.24
225.42
249.71
269.66
284.27
293.25
296.75
294.92
287.59
274.31
254.83
229.50
199.57
166.91
133.44
100.64
69.24
39.49
11.67
-13.34
-34.04
-48.63
-55.72
-55.05
-47.65
-35.60
-21.35
-7.02
5.97
16.89
25.49
31.61
35.15
36.09
34.63
31.31
26.88
22.10
17.46
13.12
8.94
4.68
0.20
-4.42
-8.89
-12.82
-15.99
-18.40
-20.34
-22.30
-24.76
-27.94
-31.72
-35.67
-39.26
-42.01
-43.76
-44.67
-45.17
-45.88
-47.42
-50.21
-54.36
-59.44
-64.51
-68.25
-69.33
-66.85
-60.68
-51.51
-40.51
-28.95
-17.80
-7.59
1.34
8.67
13.96
16.74
16.81
14.40
10.30
5.64
1.64
-0.74
-0.96
1.03
4.87
9.94
15.52
20.90
25.43
28.56
29.86
29.01
25.97
21.01
14.71
7.97
1.71
-3.31
-6.73
-8.67
-9.64
-10.40
-11.78
-14.47
-18.84
-24.74
-31.43
-37.64
-41.89
-42.86
-39.90
-33.23
-23.84
-13.22
-2.82
6.25
13.39
18.38
21.22
21.96
20.71
17.74
13.56
8.90
4.55
1.14
-1.07
-2.24
-2.86
-3.59
-4.99
-7.36
-10.64
-14.58
-18.87
-23.36
-28.13
-33.49
-39.78
-47.19
-55.64
-64.79
-74.17
-83.37
-92.16
-100.54
-108.62
-116.37
-123.59
-129.81
-134.35
-136.43
-135.25
-130.16
-120.91
-107.83
-91.86
-74.39
-56.85
-40.38
-25.44
-11.85
1.05
14.05
27.87
42.89
59.23
76.76
95.25
114.39
133.77
152.88
171.08
187.47
200.87
209.81
212.61
207.72
194.49
173.91
148.82
123.36
101.71
86.76
79.38
78.63
82.79
90.41
101.00
114.91
132.58
153.87
177.67
201.98
224.31
242.06
252.98
255.54
249.19
234.52
213.03
186.69
157.46
127.31
98.50
73.53
54.72
43.20
38.07
36.25
33.55
26.41
13.50
-3.83
-22.39
-38.79
-51.06
-59.20
-64.70
-69.34
-74.12
-78.89
-82.78
-84.88
-84.66
-81.96
-76.57
-68.14
-56.47
-42.22
-27.65
-16.40
-12.48
-18.45
-34.31
-57.60
-84.85
-113.34
-142.01
-170.96
-200.11
-228.12
-252.40
-270.29
-280.36
-282.92
-279.33
-270.65
-256.73
-236.37
-208.46
-173.33
-133.27
-92.14
-54.18
-22.78
0.11
14.11
19.99
19.20
13.46
4.61
-5.56
-15.23
-22.68
-26.61
-26.45
-22.57
-16.31
-9.46
-3.67
0.05
1.70
2.09
2.53
4.23
7.79
13.00
18.97
24.57
29.05
32.42
35.45
39.29
44.83
52.29
61.22
70.75
80.11
88.91
97.23
105.45
114.07
123.60
134.53
147.27
162.12
179.19
198.34
219.29
241.63
264.78
287.86
309.50
327.78
340.52
345.63
341.68
328.31
306.37
277.78
245.17
211.45
179.24
150.35
125.52
104.36
85.60
67.63
49.02
28.92
7.12
-16.11
-40.36
-65.26
-90.57
-116.07
-141.51
-166.52
-190.59
-213.11
-233.26
-250.09
-262.56
-269.75
-271.24
-267.18
-258.39
-246.17
-232.04
-217.41
-203.35
-190.38
-178.39
-166.72
-154.31
-140.12
-123.59
-104.97
-85.43
-66.82
-51.13
-39.90
-33.92
-33.09
-36.64
-43.37
-51.89
-60.73
-68.42
-73.68
-75.61
-74.07
-69.77
-64.26
-59.62
-57.77
-60.11
-67.04
-77.85
-90.91
-103.93
-114.30
-119.54
-117.77
-108.04
-90.64
-67.09
-39.81
-11.51
15.43
39.53
60.32
78.07
93.41
106.92
118.92
129.56
138.89
147.00
153.97
159.64
163.53
164.99
163.48
158.98
152.04
143.53
134.11
123.74
111.53
95.97
75.47
48.93
16.08
-22.52
-65.49
-110.90
-156.37
-199.22
-236.80
-266.85
-288.00
-300.07
-304.12
-302.06
-296.09
-288.10
-279.19
-269.68
-259.37
-247.97
-235.51
-222.37
-209.08
-196.06
-183.34
-170.61
-157.47
-143.69
-129.38
-114.93
-100.82
-87.40
-74.82
-63.03
-51.95
-41.53
-31.90
-23.25
-15.86
-9.99
-5.90
-3.73
-3.37
-4.24
-5.31
-5.19
-2.65
3.02
11.65
22.26
33.43
43.85
52.68
59.63
64.67
67.85
69.03
68.11
65.17
60.68
55.45
50.44
46.45
43.95
42.96
43.13
43.86
44.54
44.68
44.10
42.93
41.58
40.56
40.24
40.67
41.65
42.74
43.56
43.80
43.42
42.41
40.83
38.73
36.14
33.20
30.05
26.86
23.71
20.51
17.06
13.10
8.59
3.77
-0.72
-4.00
-5.18
-3.67
0.61
7.05
14.60
21.97
28.07
32.28
34.49
35.02
34.24
32.41
29.68
26.15
22.10
18.10
14.87
13.00
12.73
13.84
15.72
17.71
19.29
20.30
20.79
20.92
20.84
20.54
19.90
18.81
17.17
14.92
12.10
8.77
5.16
1.53
-1.84
-4.68
-6.91
-8.64
-10.15
-11.83
-14.14
-17.39
-21.73
-26.94
-32.33
-36.79
-39.04
-38.03
-33.33
-25.35
-15.20
-4.34
5.91
14.61
21.32
25.93
28.52
29.29
28.53
26.63
24.12
21.57
19.42
17.92
17.21
17.29
18.06
19.44
21.21
23.14
24.91
26.22
26.88
26.78
25.97
24.59
22.84
20.90
18.92
16.92
14.91
12.83
10.63
8.31
5.90
3.48
1.18
-0.88
-2.58
-3.87
-4.78
-5.57
-6.64
-8.47
-11.35
-15.19
-19.33
-22.62
-23.81
-22.00
-17.06
-9.70
-1.20
7.06
14.07
19.36
22.88
24.72
24.90
23.39
20.30
16.11
11.65
7.86
5.49
4.76
5.41
6.88
8.67
10.55
12.56
14.88
17.53
20.31
22.80
24.56
25.31
25.08
24.12
22.77
21.28
19.70
17.95
15.86
13.37
10.53
7.53
4.58
1.83
-0.70
-3.11
-5.55
-8.22
-11.38
-15.22
-19.80
-24.89
-29.87
-33.74
-35.42
-34.07
-29.50
-22.26
-13.53
-4.70
3.06
9.03
13.00
15.07
15.46
14.44
12.30
9.39
6.12
2.98
0.36
-1.43
-2.26
-2.12
-1.14
0.45
2.45
4.59
6.69
8.60
10.24
11.55
12.54
13.21
13.62
13.85
14.00
14.14
14.30
14.43
14.53
14.65
14.92
15.47
16.42
17.74
19.34
21.02
22.58
23.84
24.67
25.11
25.45
26.35
28.77
33.84
42.36
54.49
69.59
86.35
103.31
119.36
134.07
147.52
160.02
171.66
182.09
190.66
196.80
200.38
201.85
202.13
202.23
202.96
204.72
207.47
210.90
214.55
217.91
220.48
221.78
221.46
219.36
215.49
209.98
202.92
194.21
183.58
170.66
155.08
136.63
115.25
90.94
63.66
33.42
0.31
-35.27
-72.64
-110.81
-148.86
-186.24
-223.09
-260.25
-298.89
-339.88
-383.18
-427.43
-470.04
-507.60
-536.49
-553.53
-556.45
-544.25
-517.51
-478.44
-430.58
-378.23
-325.60
-276.03
-231.48
-192.57
-158.98
-129.99
-104.88
-83.09
-64.16
-47.76
-33.64
-21.73
-12.10
-4.88
-0.16
2.22
2.62
1.53
-0.58
-3.44
-7.00
-11.40
-16.86
-23.55
-31.43
-40.29
-49.77
-59.51
-69.36
-79.48
-90.32
-102.28
-115.36
-128.82
-141.09
-150.10
-153.85
-150.97
-141.17
-125.19
-104.54
-81.01
-56.35
-32.10
-9.52
10.46
27.36
41.37
53.28
64.36
75.85
88.59
102.75
117.82
132.92
147.08
159.52
169.73
177.49
182.75
185.64
186.45
185.65
183.86
181.65
179.47
177.48
175.56
173.45
170.92
167.88
164.45
160.87
157.33
153.82
150.10
145.82
140.64
134.39
127.18
119.45
111.80
104.94
99.49
95.74
93.57
92.48
91.67
90.31
87.73
83.53
77.50
69.63
60.01
48.87
36.64
23.96
11.60
0.27
-9.53
-17.64
-24.21
-29.65
-34.42
-38.91
-43.29
-47.55
-51.49
-54.90
-57.62
-59.59
-60.91
-61.77
-62.37
-62.90
-63.43
-63.96
-64.44
-64.79
-64.95
-64.85
-64.42
-63.54
-62.16
-60.29
-58.13
-56.02
-54.32
-53.14
-52.20
-50.73
-47.70
-42.24
-33.97
-23.28
-11.17
1.08
12.32
21.83
29.39
35.14
39.34
42.29
44.16
45.16
45.58
45.75
46.08
46.88
48.30
50.23
52.39
54.40
55.82
56.31
55.62
53.62
50.31
45.79
40.26
33.94
27.06
19.78
12.19
4.34
-3.65
-11.59
-19.16
-26.05
-32.03
-37.03
-41.09
-44.38
-47.12
-49.58
-52.07
-54.82
-57.82
-60.62
-62.32
-61.79
-58.12
-51.01
-41.10
-29.69
-18.34
-8.35
-0.42
5.39
9.38
11.92
13.24
13.48
12.85
11.71
10.58
10.03
10.49
12.07
14.59
17.67
20.86
23.76
26.24
28.30
30.11
31.86
33.65
35.48
37.26
38.88
40.29
41.54
42.73
43.98
45.32
46.66
47.85
48.68
48.86
48.11
46.07
42.46
37.19
30.63
23.65
17.58
13.89
13.64
17.07
23.45
31.11
38.02
42.29
42.63
38.65
30.77
19.95
7.41
-5.75
-18.70
-31.05
-42.74
-53.88
-64.62
-75.03
-85.16
-95.08
-105.00
-115.21
-125.96
-137.40
-149.47
-162.14
-175.49
-189.72
-204.83
-220.12
-233.85
-243.34
-245.72
-238.95
-222.55
-197.78
-167.12
-133.35
-98.79
-65.06
-33.23
-4.15
21.46
43.26
61.66
77.98
94.14
112.03
132.70
155.99
180.54
204.35
225.46
242.54
255.17
263.63
268.64
270.97
271.24
269.94
267.43
264.03
259.97
255.26
249.72
242.99
234.76
224.90
213.46
200.57
186.16
169.94
151.44
130.28
106.41
80.24
52.59
24.41
-3.43
-30.35
-56.04
-80.27
-102.91
-123.75
-142.62
-159.52
-174.71
-188.79
-202.56
-216.84
-232.26
-249.06
-267.05
-285.46
-302.86
-317.06
-325.26
-324.54
-312.72
-289.17
-255.28
-214.16
-169.77
-125.76
-84.63
-47.58
-14.88
13.46
37.26
56.17
69.98
78.85
83.40
84.51
83.03
79.66
74.90
69.10
62.37
54.57
45.24
33.65
19.09
1.10
-20.27
-44.31
-69.76
-94.83
-117.49
-135.74
-147.94
-153.28
-152.08
-145.78
-136.55
-126.63
-117.63
-110.06
-103.50
-96.95
-89.54
-80.91
-71.27
-61.21
-51.28
-41.74
-32.48
-23.08
-12.90
-1.14
13.12
30.64
51.83
76.27
102.55
128.38
151.01
167.96
177.56
179.35
173.99
162.91
147.91
130.84
113.46
97.36
83.76
73.29
65.87
60.73
56.75
52.95
48.84
44.56
40.61
37.50
35.40
34.11
33.19
32.23
31.09
29.81
28.56
27.48
26.52
25.59
24.59
23.53
22.58
21.96
21.79
21.98
22.19
21.91
20.62
17.97
13.89
8.46
1.90
-5.42
-12.94
-19.89
-25.24
-28.06
-27.85
-24.74
-19.54
-13.40
-7.40
-2.23
1.82
4.76
6.57
7.22
6.63
4.96
2.64
0.34
-1.26
-1.74
-1.00
0.73
3.09
5.76
8.48
11.11
13.48
15.38
16.66
17.20
17.06
16.31
15.08
13.45
11.43
9.08
6.55
4.09
1.90
0.06
-1.55
-3.27
-5.45
-8.32
-11.91
-16.05
-20.46
-24.70
-28.25
-30.46
-30.67
-28.36
-23.40
-16.20
-7.66
1.06
8.82
14.82
18.69
20.47
20.44
19.06
16.83
14.33
12.12
10.67
10.21
10.63
11.57
12.53
13.08
13.00
12.41
11.55
10.73
10.05
9.45
8.70
7.54
5.79
3.44
0.58
-2.59
-5.82
-8.93
-11.78
-14.30
-16.51
-18.50
-20.50
-22.72
-25.30
-28.14
-30.84
-32.72
-33.02
-31.13
-26.87
-20.58
-13.01
-5.09
2.30
8.53
13.26
16.42
18.03
18.23
17.18
15.22
12.76
10.35
8.55
7.76
8.11
9.37
11.05
12.52
13.27
13.12
12.17
10.77
9.28
7.98
6.95
6.18
5.59
5.12
4.69
4.21
3.63
2.96
2.31
1.87
1.80
2.22
3.04
4.09
5.08
5.85
6.43
7.15
8.61
11.50
16.43
23.68
33.01
43.68
54.70
65.02
73.93
81.15
86.79
91.21
94.84
98.02
101.04
104.11
107.48
111.36
115.93
121.30
127.46
134.25
141.29
147.88
153.05
155.71
154.92
150.25
141.87
130.49
117.00
102.13
86.27
69.53
51.97
33.81
15.50
-2.42
-19.58
-35.85
-51.42
-66.59
-81.69
-96.96
-112.61
-128.79
-145.39
-161.81
-176.62
-187.65
-192.44
-189.16
-177.50
-159.14
-137.39
-116.35
-99.60
-89.34
-86.11
-89.07
-96.57
-106.67
-117.36
-126.60
-132.48
-133.46
-128.82
-118.96
-105.29
-89.83
-74.61
-61.12
-50.01
-41.15
-33.96
-27.73
-21.99
-16.65
-11.88
-7.96
-5.06
-3.07
-1.75
-0.79
-0.03
0.52
0.74
0.54
-0.01
-0.69
-1.21
-1.40
-1.30
-1.20
-1.55
-2.72
-4.84
-7.64
-10.36
-12.04
-11.75
-8.94
-3.69
3.28
10.92
18.11
24.05
28.31
30.76
31.45
30.49
28.05
24.49
20.41
16.56
13.70
12.26
12.30
13.39
14.86
16.07
16.65
16.50
15.85
14.99
14.17
13.53
13.04
12.57
11.93
10.96
9.58
7.86
5.98
4.13
2.51
1.21
0.19
-0.63
-1.36
-2.14
-3.10
-4.41
-6.25
-8.69
-11.55
-14.33
-16.17
-16.23
-13.92
-9.24
-2.75
4.53
11.50
17.28
21.36
23.65
24.28
23.44
21.35
18.23
14.40
10.33
6.57
3.64
1.85
1.19
1.40
2.05
2.75
3.26
3.58
3.81
4.08
4.39
4.59
4.48
3.90
2.82
1.33
-0.41
-2.21
-3.98
-5.71
-7.43
-9.20
-11.05
-13.04
-15.23
-17.70
-20.52
-23.59
-26.54
-28.70
-29.20
-27.35
-22.87
-16.13
-8.02
0.33
7.89
14.01
18.48
21.31
22.55
22.25
20.53
17.72
14.44
11.50
9.60
9.10
9.86
11.36
13.01
14.35
15.26
15.92
16.61
17.56
18.76
19.99
20.89
21.04
20.13
18.06
14.92
11.01
6.74
2.43
-1.72
-5.73
-9.72
-13.84
-18.16
-22.64
-27.08
-31.10
-34.14
-35.47
-34.42
-30.63
-24.29
-16.20
-7.58
0.32
6.64
11.06
13.76
15.13
15.48
14.98
13.75
11.99
10.13
8.71
8.15
8.59
9.77
11.18
12.30
12.84
12.79
12.41
11.99
11.69
11.46
11.11
10.38
9.10
7.28
5.07
2.78
0.76
-0.74
-1.65
-2.14
-2.57
-3.32
-4.73
-6.90
-9.73
-12.90
-15.89
-18.14
-19.03
-18.09
-15.09
-10.28
-4.29
1.92
7.40
11.46
13.83
14.60
14.01
12.32
9.77
6.64
3.36
0.47
-1.50
-2.22
-1.73
-0.42
1.12
2.33
2.93
2.91
2.50
1.99
1.55
1.22
0.85
0.20
-0.96
-2.81
-5.36
-8.45
-11.77
-14.86
-17.33
-18.94
-19.71
-20.00
-20.39
-21.52
-23.87
-27.58
-32.29
-37.19
-41.26
-43.53
-43.47
-41.21
-37.42
-33.11
-29.30
-26.65
-25.44
-25.56
-26.71
-28.61
-31.15
-34.47
-38.89
-44.73
-52.06
-60.43
-68.85
-75.84
-79.97
-80.38
-77.23
-71.70
-65.68
-61.06
-59.06
-59.87
-62.68
-66.06
-68.61
-69.37
-68.04
-64.86
-60.32
-54.90
-48.87
-42.45
-35.92
-29.66
-24.20
-19.97
-17.18
-15.70
-15.19
-15.26
-15.64
-16.15
-16.62
-16.74
-16.11
-14.34
-11.26
-6.98
-1.92
3.36
8.34
12.71
16.42
19.62
22.62
25.73
29.23
33.26
37.91
43.20
49.05
55.25
61.47
67.25
72.06
75.51
77.46
78.08
77.75
76.85
75.52
73.70
71.13
67.61
63.19
58.18
53.07
48.27
44.02
40.32
36.99
33.86
30.77
27.62
24.29
20.64
16.57
12.21
8.04
4.77
3.17
3.71
6.39
10.72
15.88
21.03
25.50
28.89
31.03
31.86
31.36
29.60
26.84
23.55
20.36
17.88
16.51
16.29
16.99
18.18
19.41
20.38
20.90
20.95
20.61
19.99
19.21
18.34
17.40
16.31
14.98
13.34
11.42
9.37
7.39
5.65
4.19
2.92
1.65
0.17
-1.72
-4.14
-7.04
-10.15
-12.99
-14.89
-15.23
-13.64
-10.15
-5.26
0.30
5.72
10.33
13.74
15.78
16.50
16.04
14.66
12.67
10.45
8.39
6.80
5.85
5.55
5.79
6.32
6.89
7.29
7.42
7.25
6.86
6.28
5.48
4.36
2.73
0.52
-2.29
-5.53
-8.94
-12.16
-14.91
-17.06
-18.70
-20.21
-22.15
-25.11
-29.50
-35.36
-42.25
-49.38
-55.79
-60.58
-63.15
-63.19
-60.57
-55.23
-47.09
-35.96
-21.69
-4.23
16.18
38.94
63.07
87.27
110.08
130.22
146.85
159.90
170.00
178.14
185.10
190.93
194.71
194.82
189.66
178.45
161.69
141.07
118.71
96.36
74.82
54.03
33.61
13.60
-5.23
-21.57
-34.22
-42.60
-47.14
-48.99
-49.56
-50.04
-51.17
-53.24
-56.07
-59.02
-60.94
-60.28
-55.64
-46.44
-33.47
-18.95
-5.79
3.36
7.09
5.52
0.05
-7.47
-15.39
-22.57
-28.32
-32.12
-33.50
-32.19
-28.38
-22.94
-17.21
-12.66
-10.39
-10.73
-13.28
-17.13
-21.28
-25.01
-28.03
-30.39
-32.29
-33.83
-34.90
-35.29
-34.79
-33.37
-31.24
-28.82
-26.59
-25.00
-24.24
-24.15
-24.20
-23.59
-21.55
-17.58
-11.74
-4.64
2.67
9.07
13.66
15.96
15.85
13.50
9.24
3.41
-3.53
-11.05
-18.51
-25.17
-30.35
-33.52
-34.44
-33.19
-30.16
-25.87
-20.89
-15.69
-10.63
-6.01
-2.07
1.01
3.22
4.79
6.09
7.50
9.17
10.89
12.15
12.28
10.78
7.46
2.52
-3.49
-9.86
-15.86
-20.93
-24.88
-27.97
-30.94
-34.73
-40.15
-47.41
-55.90
-64.28
-70.91
-74.52
-74.60
-71.54
-66.34
-60.07
-53.51
-46.94
-40.29
-33.39
-26.22
-18.98
-11.96
-5.39
0.59
5.98
10.79
15.01
18.69
21.96
25.14
28.63
32.80
37.83
43.49
49.21
54.09
57.08
57.23
53.90
46.98
37.05
25.37
13.73
3.99
-2.37
-4.64
-3.10
1.21
6.86
12.48
17.09
20.21
21.73
21.79
20.61
18.43
15.55
12.32
9.15
6.46
4.60
3.80
4.10
5.35
7.27
9.51
11.70
13.53
14.74
15.15
14.67
13.24
10.94
7.92
4.39
0.65
-3.10
-6.71
-10.11
-13.30
-16.30
-19.17
-22.02
-25.04
-28.44
-32.36
-36.61
-40.65
-43.56
-44.38
-42.42
-37.69
-30.93
-23.40
-16.45
-11.06
-7.60
-5.87
-5.35
-5.47
-5.89
-6.40
-6.90
-7.20
-7.02
-6.06
-4.08
-1.02
3.01
7.79
13.05
18.53
24.02
29.35
34.39
39.09
43.46
47.60
51.64
55.64
59.61
63.43
66.89
69.65
71.28
71.30
69.29
65.14
59.13
51.97
44.59
37.86
32.26
27.86
24.38
21.54
19.20
17.49
16.56
16.39
16.60
16.56
15.56
13.12
9.12
3.81
-2.40
-9.07
-15.90
-22.62
-29.02
-34.83
-39.73
-43.49
-46.02
-47.42
-47.87
-47.56
-46.59
-44.98
-42.76
-39.99
-36.89
-33.70
-30.73
-28.17
-26.11
-24.52
-23.27
-22.25
-21.36
-20.56
-19.83
-19.15
-18.45
-17.68
-16.82
-15.94
-15.16
-14.60
-14.36
-14.42
-14.78
-15.40
-16.18
-16.85
-16.97
-15.92
-13.20
-8.74
-3.04
2.89
7.87
10.96
11.71
10.24
7.01
2.60
-2.47
-7.74
-12.71
-16.83
-19.52
-20.32
-19.07
-15.96
-11.50
-6.35
-1.12
3.77
8.08
11.70
14.56
16.58
17.67
17.78
16.90
15.11
12.51
9.28
5.58
1.63
-2.43
-6.46
-10.32
-13.75
-16.27
-17.28
-16.13
-12.53
-6.71
0.62
8.57
16.52
24.40
32.55
41.37
50.81
60.18
68.28
73.88
76.17
75.06
71.04
64.87
57.24
48.69
39.60
30.38
21.53
13.61
7.09
2.20
-1.10
-3.11
-4.27
-4.99
-5.58
-6.18
-6.76
-7.23
-7.53
-7.71
-7.94
-8.39
-9.12
-10.02
-10.92
-11.62
-12.08
-12.45
-13.00
-13.95
-15.36
-17.07
-18.75
-20.14
-21.11
-21.83
-22.67
-24.10
-26.48
-29.79
-33.54
-36.82
-38.62
-38.22
-35.59
-31.41
-26.86
-23.14
-20.99
-20.43
-20.98
-21.96
-22.99
-24.14
-25.79
-28.29
-31.70
-35.70
-39.74
-43.28
-45.70
-46.17
-43.44
-35.97
-22.66
-3.65
19.14
42.27
61.90
75.18
81.19
80.85
76.08
68.57
59.15
47.99
35.33
22.22
10.46
1.94
-2.40
-3.12
-2.15
-1.88
-4.19
-9.77
-18.03
-27.52
-36.60
-43.96
-48.96
-51.61
-52.39
-52.01
-51.14
-50.23
-49.45
-48.74
-48.01
-47.19
-46.30
-45.29
-43.90
-41.67
-38.06
-32.67
-25.51
-17.03
-8.01
0.72
8.48
14.92
20.02
23.97
27.05
29.47
31.30
32.48
32.87
32.37
31.00
28.93
26.44
23.81
21.23
18.79
16.43
14.09
11.68
9.11
6.32
3.27
0.04
-3.14
-5.81
-7.45
-7.61
-6.13
-3.21
0.58
4.48
7.85
10.30
11.75
12.34
12.26
11.67
10.67
9.38
8.02
6.88
6.23
6.23
6.80
7.71
8.61
9.21
9.36
9.07
8.50
7.88
7.33
6.83
6.23
5.26
3.75
1.70
-0.63
-2.83
-4.54
-5.57
-6.02
-6.20
-6.48
-7.17
-8.40
-10.20
-12.53
-15.27
-18.18
-20.84
-22.66
-23.07
-21.72
-18.73
-14.78
-10.99
-8.54
-8.23
-10.19
-13.79
-17.91
-21.42
-23.57
-24.26
-23.91
-23.28
-23.02
-23.52
-24.82
-26.71
-28.83
-30.81
-32.32
-33.05
-32.84
-31.58
-29.35
-26.32
-22.75
-18.95
-15.23
-11.76
-8.61
-5.69
-2.87
-0.07
2.69
5.26
7.40
8.90
9.66
9.67
9.00
7.75
6.07
4.22
2.69
2.11
3.08
5.93
10.42
15.80
20.93
24.77
26.62
26.39
24.48
21.54
18.23
15.05
12.28
10.00
8.24
6.96
6.07
5.44
4.86
4.10
2.92
1.14
-1.21
-3.95
-6.65
-8.88
-10.22
-10.54
-9.96
-8.83
-7.58
-6.54
-5.83
-5.30
-4.64
-3.56
-1.96
-0.05
1.71
2.73
2.53
0.82
-2.36
-6.71
-11.68
-16.49
-20.27
-22.15
-21.51
-18.12
-12.30
-4.85
3.14
10.58
16.60
20.67
22.72
22.97
21.96
20.34
18.81
17.88
17.84
18.66
20.08
21.72
23.19
24.23
24.76
24.80
24.46
23.85
23.01
21.93
20.51
18.69
16.45
13.87
11.10
8.26
5.45
2.68
-0.12
-3.04
-6.24
-9.83
-13.85
-18.17
-22.38
-25.79
-27.59
-27.08
-24.01
-18.67
-11.90
-4.78
1.66
6.74
10.20
12.11
12.70
12.25
11.02
9.29
7.39
5.66
4.40
3.79
3.83
4.31
5.01
5.68
6.21
6.52
6.56
6.18
5.22
3.51
0.97
-2.30
-6.09
-10.09
-14.05
-17.86
-21.51
-25.15
-28.95
-33.07
-37.58
-42.38
-47.08
-50.97
-53.08
-52.36
-48.03
-39.86
-28.35
-14.57
0.07
14.23
26.88
37.41
45.55
51.22
54.48
55.52
54.74
52.71
50.10
47.55
45.42
43.81
42.56
41.38
40.04
38.46
36.68
34.80
32.80
30.52
27.76
24.36
20.39
16.07
11.76
7.72
4.08
0.81
-2.22
-5.14
-8.10
-11.23
-14.63
-18.21
-21.57
-23.99
-24.55
-22.48
-17.51
-10.01
-0.93
8.58
17.44
24.91
30.55
34.22
35.86
35.58
33.62
30.41
26.57
22.78
19.62
17.41
16.17
15.68
15.58
15.54
15.34
14.92
14.32
13.62
12.82
11.87
10.62
8.96
6.84
4.34
1.60
-1.19
-3.87
-6.31
-8.46
-10.32
-11.97
-13.56
-15.29
-17.32
-19.54
-21.52
-22.51
-21.63
-18.23
-12.18
-3.99
5.26
14.33
22.15
28.06
31.88
33.75
33.94
32.72
30.33
27.10
23.40
19.69
16.27
13.14
10.01
6.47
2.29
-2.32
-6.69
-9.98
-11.54
-11.30
-9.76
-7.79
-6.17
-5.28
-5.00
-4.88
-4.49
-3.59
-2.36
-1.22
-0.73
-1.33
-3.18
-6.05
-9.26
-11.87
-12.85
-11.39
-7.19
-0.52
7.80
16.65
24.92
31.74
36.54
39.07
39.34
37.52
33.97
29.26
24.10
19.24
15.30
12.58
11.04
10.35
10.06
9.83
9.44
8.88
8.17
7.30
6.12
4.47
2.20
-0.72
-4.12
-7.74
-11.25
-14.42
-17.22
-19.81
-22.55
-25.85
-29.99
-34.98
-40.46
-45.64
-49.53
-51.19
-50.06
-46.21
-40.34
-33.60
-27.24
-22.25
-19.14
-17.86
-17.99
-18.98
-20.30
-21.55
-22.44
-22.70
-22.12
-20.51
-17.86
-14.33
-10.24
-6.00
-1.99
1.57
4.57
6.96
8.72
9.75
9.93
9.20
7.64
5.47
3.06
0.78
-1.11
-2.57
-3.76
-5.06
-6.91
-9.58
-13.00
-16.61
-19.53
-20.77
-19.69
-16.23
-10.99
-5.02
0.54
4.79
7.28
7.95
6.97
4.61
1.16
-3.04
-7.52
-11.74
-15.10
-17.13
-17.62
-16.60
-14.33
-11.16
-7.41
-3.27
1.22
6.09
11.31
16.72
22.01
26.78
30.66
33.46
35.19
35.97
36.02
35.50
34.52
33.14
31.35
29.05
26.10
22.40
18.05
13.47
9.44
6.92
6.69
9.03
13.60
19.54
25.80
31.47
35.98
39.11
40.89
41.47
41.09
40.12
39.07
38.47
38.70
39.89
41.74
43.73
45.22
45.75
45.14
43.54
41.27
38.72
36.12
33.54
30.89
28.13
25.22
22.25
19.30
16.36
13.29
9.89
5.98
1.59
-3.04
-7.54
-11.53
-14.80
-17.42
-19.68
-22.07
-25.06
-29.00
-33.95
-39.53
-44.93
-49.03
-50.67
-49.05
-44.02
-36.21
-26.87
-17.49
-9.38
-3.35
0.38
2.02
2.08
1.09
-0.45
-2.13
-3.59
-4.57
-4.88
-4.52
-3.65
-2.57
-1.57
-0.84
-0.35
0.03
0.51
1.14
1.85
2.42
2.70
2.62
2.35
2.10
2.04
2.16
2.28
2.10
1.43
0.23
-1.35
-3.08
-4.74
-6.21
-7.46
-8.61
-9.85
-11.37
-13.35
-15.72
-18.14
-19.95
-20.33
-18.62
-14.63
-8.75
-1.86
4.93
10.63
14.61
16.61
16.67
14.99
11.88
7.79
3.28
-0.97
-4.32
-6.27
-6.58
-5.35
-2.94
0.06
3.06
5.51
7.10
7.68
7.29
5.98
3.88
1.12
-2.08
-5.37
-8.38
-10.83
-12.62
-13.89
-14.87
-15.74
-16.57
-17.34
-18.03
-18.73
-19.61
-20.95
-22.94
-25.68
-29.11
-33.10
-37.48
-42.10
-46.76
-51.20
-55.10
-58.17
-60.22
-61.21
-61.30
-60.71
-59.61
-58.04
-55.86
-52.88
-48.99
-44.21
-38.75
-32.90
-26.87
-20.77
-14.55
-8.15
-1.59
4.94
11.08
16.38
20.45
23.13
24.49
24.81
24.49
23.86
23.13
22.38
21.59
20.73
19.79
18.76
17.65
16.46
15.14
13.64
11.92
9.96
7.71
5.15
2.20
-1.12
-4.66
-8.02
-10.53
-11.41
-10.04
-6.28
-0.59
6.06
12.56
17.98
21.79
23.91
24.50
23.81
22.02
19.36
16.10
12.70
9.63
7.28
5.84
5.23
5.17
5.27
5.21
4.73
3.80
2.54
1.17
-0.08
-1.09
-1.93
-2.79
-3.92
-5.48
-7.46
-9.67
-11.86
-13.79
-15.38
-16.65
-17.74
-18.79
-19.91
-21.20
-22.74
-24.62
-26.85
-29.19
-31.10
-31.82
-30.62
-27.14
-21.59
-14.73
-7.58
-1.05
4.33
8.41
11.33
13.25
14.24
14.34
13.69
12.60
11.54
10.94
11.08
11.95
13.28
14.72
15.91
16.62
16.76
16.41
15.74
14.93
14.12
13.28
12.27
10.88
8.99
6.65
4.10
1.69
-0.30
-1.78
-2.84
-3.71
-4.62
-5.78
-7.28
-9.15
-11.31
-13.54
-15.38
-16.23
-15.50
-12.80
-8.19
-2.16
4.47
10.78
16.10
20.06
22.67
24.12
24.68
24.51
23.75
22.47
20.85
19.07
17.35
15.88
14.71
13.77
12.88
11.82
10.42
8.65
6.57
4.27
1.86
-0.68
-3.39
-6.30
-9.30
-12.16
-14.62
-16.50
-17.86
-18.95
-20.03
-21.27
-22.56
-23.62
-24.16
-23.92
-22.72
-20.37
-16.66
-11.41
-4.56
3.71
13.00
22.76
32.45
41.59
49.69
56.18
60.35
61.64
59.87
55.50
49.54
43.28
37.85
33.93
31.61
30.56
30.12
29.59
28.31
25.80
21.85
16.59
10.47
4.11
-1.93
-7.31
-12.03
-16.27
-20.20
-23.89
-27.22
-30.01
-32.15
-33.67
-34.72
-35.50
-36.22
-37.00
-37.92
-38.97
-40.05
-40.91
-41.16
-40.31
-37.97
-34.01
-28.66
-22.52
-16.38
-10.96
-6.72
-3.77
-1.97
-1.06
-0.81
-1.08
-1.71
-2.48
-3.12
-3.34
-3.01
-2.16
-1.03
0.10
1.02
1.64
2.02
2.27
2.44
2.47
2.26
1.72
0.83
-0.29
-1.49
-2.61
-3.52
-4.19
-4.66
-5.03
-5.43
-6.05
-7.08
-8.64
-10.66
-12.81
-14.52
-15.17
-14.20
-11.44
-7.12
-1.81
3.73
8.79
12.85
15.64
17.12
17.35
16.46
14.65
12.14
9.26
6.49
4.30
3.08
3.03
3.96
5.42
6.84
7.76
7.98
7.62
6.94
6.22
5.54
4.78
3.73
2.23
0.30
-1.85
-3.91
-5.64
-6.97
-8.05
-9.12
-10.45
-12.19
-14.36
-16.84
-19.40
-21.69
-23.26
-23.60
-22.30
-19.16
-14.38
-8.55
-2.47
3.06
7.49
10.60
12.44
13.17
12.92
11.77
9.87
7.49
5.08
3.14
2.08
2.05
2.89
4.22
5.55
6.52
6.93
6.77
6.16
5.29
4.30
3.30
2.26
1.05
-0.49
-2.51
-5.04
-7.95
-11.00
-13.88
-16.31
-18.17
-19.55
-20.64
-21.78
-23.30
-25.40
-28.00
-30.70
-32.72
-33.10
-30.98
-25.91
-18.06
-8.18
2.57
13.00
22.12
29.32
34.39
37.42
38.71
38.65
37.72
36.39
35.10
34.17
33.80
34.01
34.63
35.29
35.48
34.66
32.46
28.88
24.33
19.58
15.42
12.43
10.75
10.07
9.83
9.46
8.61
7.28
5.77
4.45
3.65
3.43
3.65
3.93
3.85
2.94
0.89
-2.41
-6.70
-11.26
-14.92
-16.28
-14.06
-7.61
2.76
15.77
29.47
41.87
51.48
57.73
60.98
62.18
62.40
62.35
62.28
62.08
61.58
60.88
60.29
60.15
60.32
60.07
58.23
53.80
46.58
37.42
27.93
19.75
13.73
9.67
6.52
3.10
-1.26
-6.42
-11.63
-16.06
-19.25
-21.30
-22.68
-23.91
-25.19
-26.34
-26.92
-26.51
-24.92
-22.25
-18.89
-15.23
-11.52
-7.84
-4.15
-0.39
3.37
6.96
10.21
13.01
15.39
17.42
19.09
20.24
20.55
19.68
17.40
13.75
8.94
3.22
-3.23
-10.41
-18.51
-27.76
-38.36
-50.35
-63.57
-77.63
-91.86
-105.30
-116.85
-125.41
-130.24
-131.24
-129.00
-124.69
-119.67
-115.11
-111.65
-109.38
-107.97
-106.98
-106.02
-104.90
-103.49
-101.65
-99.20
-95.96
-91.95
-87.31
-82.27
-76.97
-71.23
-64.54
-56.15
-45.37
-31.82
-15.68
2.34
21.21
39.76
57.01
72.22
85.02
95.31
103.20
108.87
112.45
113.94
113.19
109.86
103.52
93.78
80.50
63.99
45.10
25.24
6.23
-10.11
-22.27
-29.38
-31.37
-28.92
-23.29
-16.03
-8.60
-2.15
2.65
5.58
6.69
6.26
4.67
2.39
0.09
-1.55
-1.95
-0.86
1.60
5.09
9.43
14.81
21.72
30.63
41.43
53.23
64.48
73.50
79.07
80.78
79.03
74.64
68.45
61.14
53.20
45.04
37.17
30.09
24.22
19.73
16.49
14.12
12.06
9.67
6.35
1.69
-4.39
-11.46
-18.56
-24.41
-27.92
-28.70
-27.38
-25.37
-24.28
-25.08
-27.64
-30.79
-32.99
-33.14
-31.13
-27.91
-24.90
-23.41
-24.11
-26.89
-31.01
-35.30
-38.48
-39.37
-37.13
-31.56
-23.22
-13.33
-3.43
5.06
11.22
14.74
15.81
14.83
12.25
8.42
3.80
-0.95
-4.90
-7.01
-6.45
-2.93
3.08
10.41
17.56
23.22
26.61
27.67
26.88
24.89
22.14
18.64
14.04
7.87
-0.11
-9.64
-19.98
-30.07
-38.86
-45.61
-50.11
-52.65
-53.87
-54.48
-55.11
-56.26
-58.35
-61.66
-66.33
-72.09
-78.10
-82.91
-84.74
-82.05
-74.03
-60.97
-44.14
-25.42
-6.76
10.24
24.50
35.46
42.90
46.90
47.92
46.76
44.52
42.35
41.18
41.38
42.73
44.51
45.79
45.79
44.12
40.89
36.51
31.37
25.58
18.76
10.27
-0.49
-13.59
-28.35
-43.47
-57.43
-68.99
-77.65
-83.72
-88.03
-91.54
-94.94
-98.48
-102.06
-105.42
-108.27
-110.31
-111.19
-110.36
-107.13
-100.83
-91.13
-78.29
-63.16
-47.04
-31.19
-16.41
-2.93
9.46
21.14
32.61
44.62
58.45
75.89
98.67
127.60
161.73
198.06
232.16
259.38
276.10
280.51
272.62
253.78
226.19
192.52
155.81
119.23
85.53
56.39
32.02
11.39
-7.02
-24.29
-40.45
-54.60
-65.47
-72.33
-75.34
-75.41
-73.70
-70.95
-67.27
-62.27
-55.45
-46.56
-35.81
-23.72
-10.98
1.79
14.16
25.88
36.71
46.35
54.35
60.23
63.76
65.24
65.54
65.91
67.45
70.66
75.13
79.69
82.81
83.21
80.30
74.28
66.02
56.66
47.17
38.00
28.83
18.81
6.91
-7.43
-23.86
-41.04
-57.09
-70.33
-79.89
-86.04
-89.83
-92.52
-94.98
-97.41
-99.51
-100.86
-101.37
-101.39
-101.73
-103.29
-106.76
-112.21
-118.99
-125.71
-130.65
-132.29
-129.81
-123.38
-114.02
-103.23
-92.43
-82.63
-74.34
-67.69
-62.63
-59.10
-56.88
-55.47
-54.04
-51.53
-46.96
-39.93
-30.80
-20.73
-11.26
-3.80
0.92
3.04
3.41
3.11
2.98
3.32
3.91
4.24
3.85
2.55
0.43
-2.24
-5.07
-7.75
-9.98
-11.58
-12.49
-12.90
-13.26
-14.23
-16.45
-20.18
-25.09
-30.19
-34.02
-35.19
-32.75
-26.64
-17.69
-7.34
2.77
11.35
17.77
22.18
25.32
28.13
31.34
35.22
39.52
43.68
47.12
49.42
50.35
49.81
47.73
44.18
39.62
35.01
31.80
31.52
35.27
43.17
54.20
66.46
77.80
86.53
91.87
94.11
94.19
93.30
92.33
91.64
91.07
90.11
88.13
84.49
78.77
70.84
61.28
51.46
43.42
39.20
39.93
45.10
52.54
59.23
62.75
62.48
59.96
58.13
59.80
66.25
76.57
88.04
97.16
100.77
96.73
84.08
63.08
35.31
3.75
-27.35
-53.32
-70.37
-76.92
-74.16
-65.44
-54.74
-44.92
-36.82
-29.47
-21.13
-10.59
2.11
15.80
28.89
40.07
48.71
54.72
58.25
59.52
58.97
57.55
56.73
58.03
62.16
68.34
74.50
78.28
78.51
75.91
72.70
71.07
71.49
72.00
68.91
58.68
39.68
12.86
-19.21
-53.95
-89.99
-127.02
-164.77
-201.88
-235.72
-263.13
-281.50
-289.35
-285.99
-271.13
-244.62
-207.15
-161.44
-112.73
-68.44
-36.32
-22.23
-28.40
-52.76
-89.17
-128.68
-161.48
-179.27
-177.73
-158.22
-127.48
-95.11
-69.47
-53.83
-44.99
-35.23
-16.85
13.16
51.15
88.89
118.49
137.49
150.55
166.81
194.15
234.01
279.51
318.52
339.59
337.19
313.73
277.08
235.84
195.16
155.67
115.32
72.87
30.30
-7.35
-34.26
-46.87
-45.52
-34.09
-17.88
-1.20
14.24
29.22
45.74
65.41
88.39
113.46
138.78
162.85
184.88
204.65
222.02
236.82
248.91
258.60
266.77
274.63
282.92
291.23
297.77
299.92
295.41
283.50
265.43
243.97
222.20
202.21
184.40
167.64
150.20
130.90
109.65
87.40
65.48
44.77
24.99
4.89
-17.15
-42.36
-70.86
-101.74
-133.80
-166.38
-199.55
-233.33
-266.57
-296.56
-319.88
-334.33
-340.27
-340.65
-339.35
-339.05
-339.75
-339.11
-334.24
-323.70
-308.52
-291.66
-276.21
-263.64
-253.09
-242.13
-228.44
-211.57
-193.55
-178.26
-169.82
-170.57
-180.01
-195.40
-213.71
-233.81
-257.18
-286.35
-322.08
-361.01
-395.58
-416.43
-416.17
-392.39
-348.35
-291.10
-228.45
-166.31
-107.67
-53.28
-3.22
42.02
81.37
113.97
139.94
160.48
177.09
190.24
198.67
199.44
189.36
166.80
133.24
93.52
54.52
23.07
3.82
-1.87
4.14
17.99
35.29
52.33
66.56
76.57
81.65
81.48
76.00
65.67
51.65
35.93
21.04
9.43
2.67
1.03
3.36
7.69
12.07
15.31
17.18
18.08
18.46
18.36
17.58
16.10
14.61
14.61
17.80
25.25
36.65
50.13
62.74
71.50
74.40
70.94
62.09
49.53
34.90
19.20
2.83
-14.06
-30.94
-46.76
-60.10
-69.67
-74.89
-75.98
-73.67
-68.66
-61.20
-51.26
-38.95
-25.04
-10.95
1.84
12.66
22.25
32.64
46.16
64.16
86.10
109.63
131.56
149.20
161.35
168.32
171.32
171.54
169.67
165.97
160.72
154.55
148.31
142.56
137.19
131.31
123.70
113.40
100.18
84.60
67.72
50.72
34.52
19.67
6.31
-5.80
-17.13
-28.21
-39.49
-51.16
-63.09
-74.93
-86.19
-96.34
-104.82
-111.29
-115.72
-118.55
-120.59
-122.72
-125.52
-129.16
-133.58
-138.72
-144.46
-150.32
-154.86
-155.64
-149.82
-135.41
-112.37
-82.98
-51.08
-20.67
5.55
26.88
44.35
59.92
75.63
92.89
112.12
132.85
153.85
173.47
189.86
201.24
206.05
203.12
192.04
173.37
148.74
120.35
90.19
59.21
27.10
-6.82
-41.92
-74.90
-99.77
-109.74
-100.40
-72.47
-32.59
8.62
40.30
55.30
52.30
35.42
11.54
-12.62
-32.64
-46.59
-54.09
-54.94
-48.72
-35.24
-15.72
6.52
26.39
38.43
38.80
26.80
5.22
-20.72
-45.35
-64.47
-76.60
-82.77
-85.18
-85.62
-84.27
-79.94
-71.13
-57.51
-40.85
-24.81
-13.98
-12.67
-23.90
-48.97
-87.17
-135.59
-189.13
-240.99
-283.78
-311.07
-318.90
-306.60
-276.74
-234.27
-185.45
-136.81
-94.36
-62.73
-44.40
-39.07
-43.89
-54.34
-65.93
-75.59
-82.32
-86.77
-90.17
-93.40
-96.59
-99.40
-101.53
-103.27
-105.60
-109.79
-116.90
-127.27
-140.44
-155.12
-169.40
-180.95
-187.46
-187.02
-178.50
-161.79
-137.63
-107.35
-72.53
-34.94
3.33
39.90
72.23
98.27
117.12
129.56
138.01
145.80
156.10
170.91
190.65
214.35
240.24
266.43
291.41
314.12
333.82
349.92
361.87
369.11
371.06
367.10
356.68
339.47
315.49
285.35
250.13
211.28
170.25
128.37
86.83
46.80
9.48
-24.05
-52.94
-76.68
-95.05
-107.86
-114.85
-115.81
-111.05
-101.74
-90.04
-78.65
-70.02
-65.69
-65.90
-69.92
-76.55
-84.83
-94.15
-104.27
-114.86
-125.18
-134.08
-140.13
-142.08
-139.30
-131.98
-121.06
-107.87
-93.84
-80.05
-67.22
-55.76
-45.93
-37.92
-31.85
-27.70
-25.15
-23.63
-22.45
-21.04
-19.21
-17.26
-15.92
-16.08
-18.33
-22.55
-27.70
-31.98
-33.31
-29.99
-21.33
-7.82
9.04
27.26
44.92
60.64
73.69
83.86
91.24
96.05
98.55
99.10
98.20
96.54
94.86
93.77
93.55
94.06
94.85
95.37
95.25
94.44
93.14
91.67
90.19
88.62
86.65
83.95
80.34
75.90
70.94
65.85
60.92
56.19
51.43
46.28
40.28
33.08
24.53
14.81
4.55
-5.11
-12.67
-16.57
-15.71
-9.86
0.14
12.61
25.55
37.22
46.52
53.06
56.90
58.31
57.58
55.14
51.63
47.92
44.96
43.44
43.54
44.83
46.49
47.62
47.65
46.48
44.48
42.18
40.00
38.04
36.07
33.71
30.64
26.81
22.48
18.06
13.98
10.46
7.45
4.64
1.61
-2.09
-6.78
-12.61
-19.36
-26.40
-32.66
-36.82
-37.61
-34.30
-26.89
-16.19
-3.58
9.40
21.41
31.49
39.07
43.94
46.08
45.77
43.49
40.04
36.33
33.22
31.35
30.89
31.61
33.00
34.46
35.55
36.07
36.03
35.60
34.88
33.89
32.50
30.58
28.01
24.79
21.06
17.05
13.02
9.20
5.67
2.39
-0.86
-4.42
-8.67
-13.85
-19.92
-26.38
-32.28
-36.43
-37.76
-35.63
-30.15
-22.08
-12.60
-2.99
5.69
12.68
17.55
20.08
20.24
18.26
14.66
10.15
5.51
1.34
-2.04
-4.61
-6.53
-8.11
-9.56
-10.97
-12.10
-12.34
-10.75
-6.29
1.91
14.24
30.48
49.96
71.79
95.15
119.32
143.61
167.16
188.99
208.10
223.69
235.34
242.92
246.44
245.96
241.51
233.15
221.01
205.32
186.32
164.28
139.66
113.20
86.09
59.81
35.79
15.08
-2.01
-15.85
-27.23
-37.02
-45.86
-53.99
-61.35
-67.64
-72.62
-76.17
-78.38
-79.51
-79.88
-79.82
-79.57
-79.29
-79.09
-79.05
-79.20
-79.48
-79.77
-79.96
-80.07
-80.30
-81.05
-82.81
-85.96
-90.56
-96.23
-102.02
-106.54
-108.22
-105.74
-98.42
-86.56
-71.43
-54.93
-39.11
-25.57
-15.24
-8.30
-4.47
-3.24
-4.07
-6.40
-9.69
-13.35
-16.86
-19.83
-22.08
-23.64
-24.67
-25.38
-25.96
-26.56
-27.30
-28.34
-29.86
-32.01
-34.86
-38.34
-42.20
-46.13
-49.84
-53.17
-56.19
-59.17
-62.53
-66.71
-72.02
-78.39
-85.20
-91.27
-95.01
-94.91
-90.08
-80.63
-67.80
-53.58
-40.09
-29.02
-21.31
-17.17
-16.37
-18.44
-22.91
-29.21
-36.70
-44.62
-52.27
-59.16
-65.15
-70.42
-75.39
-80.48
-86.00
-92.03
-98.51
-105.31
-112.31
-119.52
-126.96
-134.62
-142.30
-149.51
-155.52
-159.49
-160.77
-159.11
-154.73
-148.33
-140.85
-133.24
-126.15
-119.78
-113.67
-106.84
-98.03
-86.10
-70.50
-51.53
-30.32
-8.53
12.19
30.51
45.66
57.35
65.57
70.57
72.77
72.87
71.86
70.81
70.63
71.80
74.27
77.49
80.66
83.09
84.36
84.47
83.71
82.46
80.91
79.02
76.50
73.10
68.76
63.70
58.38
53.27
48.66
44.49
40.45
36.06
30.88
24.66
17.55
10.10
3.26
-1.75
-3.78
-2.14
3.19
11.47
21.40
31.52
40.49
47.39
51.77
53.54
52.91
50.27
46.24
41.58
37.09
33.48
31.12
29.97
29.64
29.52
29.07
27.93
26.08
23.72
21.13
18.50
15.88
13.13
10.12
6.78
3.23
-0.23
-3.27
-5.68
-7.46
-8.82
-10.14
-11.83
-14.28
-17.75
-22.23
-27.34
-32.23
-35.62
-36.14
-32.72
-25.09
-13.93
-0.70
12.81
25.03
34.98
42.32
47.16
49.75
50.39
49.36
47.10
44.21
41.43
39.47
38.76
39.30
40.67
42.25
43.44
43.90
43.60
42.72
41.50
40.02
38.15
35.66
32.32
28.10
23.23
18.16
13.36
9.23
5.89
3.19
0.82
-1.63
-4.54
-8.19
-12.68
-17.84
-23.11
-27.59
-30.14
-29.75
-25.92
-18.87
-9.54
0.66
10.33
18.39
24.33
28.07
29.83
29.93
28.71
26.52
23.79
21.04
18.76
17.30
16.82
17.19
18.09
19.13
19.93
20.27
20.02
19.14
17.69
15.72
13.33
10.61
7.62
4.42
1.01
-2.61
-6.41
-10.27
-14.06
-17.62
-20.90
-23.91
-26.80
-29.75
-32.95
-36.54
-40.64
-45.16
-49.79
-53.80
-56.08
-55.46
-50.96
-42.32
-30.08
-15.53
-0.27
14.17
26.72
36.81
44.30
49.21
51.71
52.02
50.60
48.09
45.22
42.66
40.80
39.68
39.09
38.65
38.07
37.15
35.86
34.22
32.23
29.91
27.24
24.29
21.17
18.05
15.04
12.13
9.24
6.27
3.16
0.02
-2.95
-5.56
-7.69
-9.43
-11.02
-12.79
-15.06
-18.07
-21.86
-26.23
-30.66
-34.31
-36.16
-35.29
-31.15
-23.84
-14.18
-3.41
7.08
16.22
23.42
28.57
31.91
33.75
34.40
34.14
33.23
32.03
30.95
30.44
30.78
32.05
34.00
36.07
37.55
37.78
36.32
33.06
28.20
22.06
14.94
7.08
-1.37
-10.23
-19.18
-27.84
-35.83
-42.91
-48.98
-54.04
-58.10
-61.09
-62.99
-63.86
-63.93
-63.65
-63.55
-64.09
-65.43
-67.29
-68.89
-69.08
-66.69
-60.92
-51.69
-39.77
-26.51
-13.40
-1.64
8.18
16.02
22.16
26.85
30.21
32.23
33.01
32.87
32.36
32.10
32.56
33.89
35.89
38.15
40.18
41.65
42.40
42.46
41.96
41.07
39.94
38.66
37.30
35.81
34.03
31.69
28.56
24.63
20.20
15.95
12.72
11.28
11.93
14.36
17.71
20.75
22.29
21.49
18.05
12.32
5.16
-2.29
-8.90
-13.91
-17.08
-18.72
-19.52
-20.34
-21.89
-24.68
-28.93
-34.62
-41.55
-49.27
-57.12
-64.28
-69.92
-73.42
-74.46
-73.15
-69.90
-65.26
-59.79
-53.88
-47.77
-41.53
-35.15
-28.63
-21.96
-15.16
-8.26
-1.37
5.28
11.29
16.25
19.82
21.86
22.54
22.22
21.36
20.30
19.21
18.06
16.67
14.80
12.29
9.16
5.73
2.62
0.70
0.83
3.55
8.84
16.09
24.29
32.40
39.57
45.35
49.55
52.18
53.21
52.69
50.71
47.53
43.60
39.39
35.30
31.53
28.07
24.72
21.27
17.59
13.68
9.61
5.54
1.62
-2.05
-5.46
-8.67
-11.83
-15.03
-18.32
-21.59
-24.68
-27.41
-29.73
-31.71
-33.56
-35.53
-37.78
-40.37
-43.30
-46.54
-50.00
-53.52
-56.70
-58.88
-59.33
-57.46
-53.12
-46.74
-39.16
-31.42
-24.40
-18.57
-13.97
-10.37
-7.44
-4.86
-2.41
0.13
2.99
6.40
10.47
15.16
20.14
24.95
29.04
32.01
33.69
34.17
33.72
32.64
31.17
29.39
27.26
24.65
21.47
17.77
13.71
9.56
5.61
2.09
-0.92
-3.49
-5.72
-7.77
-9.76
-11.85
-14.22
-17.02
-20.21
-23.47
-26.12
-27.26
-26.07
-22.22
-15.98
-8.24
-0.14
7.22
13.14
17.32
19.78
20.71
20.35
18.99
16.97
14.69
12.59
11.05
10.31
10.40
11.21
12.44
13.76
14.78
15.22
14.92
13.96
12.54
10.91
9.25
7.59
5.83
3.77
1.31
-1.56
-4.67
-7.74
-10.51
-12.80
-14.59
-15.99
-17.16
-18.31
-19.63
-21.31
-23.48
-26.14
-29.04
-31.64
-33.14
-32.76
-30.05
-25.09
-18.54
-11.42
-4.74
0.75
4.76
7.38
8.80
9.26
8.88
7.75
6.09
4.26
2.70
1.83
1.82
2.50
3.41
3.93
3.55
2.07
-0.32
-3.10
-5.63
-7.42
-8.32
-8.62
-8.95
-10.00
-12.19
-15.49
-19.39
-23.11
-25.99
-27.84
-28.99
-30.17
-32.18
-35.64
-40.77
-47.42
-54.89
-61.90
-66.55
-66.73
-60.83
-48.59
-31.60
-13.01
3.46
14.90
20.13
19.92
16.38
11.94
8.52
7.20
8.57
13.13
21.62
34.79
52.88
75.02
99.18
122.64
142.95
158.88
170.84
180.43
189.35
198.19
205.77
209.29
205.39
191.39
166.39
131.51
89.71
45.01
1.67
-36.62
-67.35
-89.54
-103.68
-111.43
-115.00
-116.47
-117.34
-118.35
-119.52
-120.50
-120.84
-120.24
-118.59
-115.92
-112.28
-107.62
-101.72
-94.28
-84.98
-73.73
-60.68
-46.33
-31.32
-16.35
-2.08
10.89
22.03
30.86
37.04
40.46
41.43
40.54
38.62
36.41
34.45
32.97
31.93
31.17
30.53
29.97
29.53
29.24
29.11
29.03
28.87
28.46
27.74
26.73
25.52
24.28
23.12
22.07
21.07
19.94
18.48
16.47
13.74
10.18
5.74
0.40
-5.80
-12.78
-20.38
-28.34
-36.35
-44.05
-51.05
-56.90
-61.04
-62.85
-61.77
-57.52
-50.36
-41.08
-30.88
-20.98
-12.33
-5.42
-0.31
3.22
5.48
6.75
7.31
7.44
7.37
7.28
7.24
7.19
7.04
6.76
6.45
6.25
6.33
6.77
7.53
8.46
9.31
9.76
9.57
8.55
6.71
4.25
1.48
-1.22
-3.58
-5.49
-7.05
-8.44
-9.82
-11.20
-12.48
-13.52
-14.27
-14.77
-15.21
-15.79
-16.69
-18.02
-19.84
-22.09
-24.58
-26.91
-28.50
-28.72
-27.07
-23.45
-18.19
-12.02
-5.84
-0.49
3.51
5.96
6.97
6.75
5.60
3.78
1.60
-0.63
-2.56
-3.90
-4.50
-4.41
-3.84
-3.16
-2.63
-2.43
-2.57
-2.98
-3.58
-4.39
-5.50
-7.02
-8.95
-11.20
-13.58
-15.90
-18.08
-20.15
-22.15
-24.12
-25.97
-27.49
-28.39
-28.41
-27.42
-25.43
-22.63
-19.32
-15.85
-12.58
-9.81
-7.70
-6.17
-4.81
-2.99
-0.03
4.46
10.37
17.03
23.46
28.68
32.16
33.91
34.33
33.94
33.06
31.73
29.82
27.32
24.46
21.72
19.63
18.52
18.42
19.01
19.87
20.54
20.75
20.39
19.47
18.10
16.43
14.74
13.38
12.70
12.99
14.30
16.34
18.53
20.12
20.37
18.86
15.61
11.14
6.25
1.72
-2.00
-4.87
-7.20
-9.32
-11.42
-13.42
-15.15
-16.43
-17.26
-17.71
-17.84
-17.59
-16.72
-14.96
-12.07
-7.91
-2.51
4.01
11.42
19.36
27.36
34.90
41.52
46.94
51.15
54.34
56.80
58.76
60.38
61.64
62.45
62.73
62.51
62.00
61.60
61.80
63.04
65.53
69.09
73.16
76.89
79.45
80.34
79.60
77.86
76.03
74.94
75.00
76.09
77.69
79.25
80.48
81.53
82.86
84.97
88.17
92.38
97.13
101.60
104.66
104.89
100.81
91.25
75.93
55.84
33.05
10.02
-11.53
-31.27
-50.19
-69.68
-90.16
-110.32
-127.28
-137.73
-139.36
-131.72
-116.21
-95.23
-71.20
-46.11
-21.64
0.34
17.54
27.48
28.22
19.02
0.55
-25.32
-56.15
-89.26
-121.83
-150.86
-173.27
-186.52
-189.28
-182.08
-167.23
-148.02
-127.59
-108.01
-90.02
-73.48
-58.10
-43.95
-31.45
-21.01
-12.64
-5.77
0.44
6.70
13.20
19.56
25.07
29.15
31.73
33.26
34.51
36.20
38.59
41.40
43.88
45.07
44.19
40.87
35.18
27.53
18.48
8.49
-2.14
-13.38
-25.27
-37.88
-51.04
-64.23
-76.53
-86.76
-93.79
-96.92
-96.13
-92.07
-85.82
-78.51
-71.01
-63.74
-56.76
-50.02
-43.52
-37.40
-31.93
-27.37
-23.87
-21.36
-19.48
-17.62
-14.96
-10.68
-4.24
4.46
15.04
26.77
38.90
50.84
62.35
73.36
83.90
93.94
103.36
112.02
119.76
126.39
131.66
135.27
137.03
137.12
136.09
134.65
133.27
131.80
129.45
125.07
117.73
107.12
93.73
78.65
63.21
48.61
35.56
24.17
13.83
3.46
-8.25
-22.41
-39.67
-60.10
-83.30
-108.42
-134.08
-158.18
-178.01
-190.77
-194.49
-189.01
-176.18
-159.43
-142.52
-128.23
-117.76
-110.74
-105.99
-102.28
-98.72
-94.71
-89.71
-83.17
-74.70
-64.59
-54.03
-44.95
-39.47
-39.02
-43.75
-52.38
-62.66
-72.20
-79.30
-83.38
-84.96
-85.39
-86.55
-90.38
-98.37
-110.78
-125.99
-140.64
-150.57
-152.70
-146.56
-134.72
-121.59
-111.21
-105.10
-101.70
-97.44
-88.87
-74.49
-55.22
-33.47
-11.59
9.29
29.37
49.51
70.33
91.71
112.94
133.35
152.81
171.97
191.87
213.29
236.20
259.60
281.97
302.02
319.40
334.89
350.02
366.35
384.71
404.98
426.23
447.27
467.08
484.94
500.29
512.44
520.41
523.04
519.31
508.71
491.59
469.03
442.62
413.98
384.29
354.13
323.61
292.58
260.96
228.83
196.38
163.71
130.80
97.52
63.89
30.20
-2.91
-34.48
-63.57
-89.42
-111.63
-130.23
-145.48
-157.72
-167.22
-174.07
-178.30
-179.95
-179.31
-176.95
-173.66
-170.29
-167.53
-165.72
-164.82
-164.55
-164.56
-164.72
-165.21
-166.48
-169.08
-173.40
-179.52
-187.18
-195.94
-205.42
-215.44
-226.09
-237.65
-250.45
-264.82
-281.11
-299.66
-320.53
-343.09
-365.67
-385.69
-400.31
-407.51
-406.94
-400.17
-389.85
-378.49
-367.28
-355.73
-342.39
-325.90
-305.95
-283.42
-259.71
-235.87
-212.07
-187.86
-162.77
-136.96
-111.27
-86.63
-63.25
-40.19
-15.69
11.58
41.39
71.37
97.72
116.66
126.03
126.05
118.83
107.05
92.52
75.67
55.94
32.78
6.62
-20.99
-47.84
-72.02
-92.53
-109.43
-123.55
-136.05
-148.17
-161.27
-176.91
-196.74
-221.99
-252.79
-287.65
-323.34
-355.54
-379.96
-393.57
-395.49
-387.14
-371.56
-352.24
-331.86
-311.57
-291.07
-269.22
-245.18
-219.08
-192.35
-167.18
-145.74
-129.31
-117.87
-110.35
-105.26
-101.35
-97.90
-94.58
-91.20
-87.53
-83.47
-79.29
-76.01
-75.10
-77.90
-84.65
-93.80
-102.00
-104.86
-98.25
-79.63
-49.00
-9.03
35.73
80.18
120.04
152.55
176.43
191.13
196.16
191.01
175.86
152.23
123.28
93.07
65.28
41.98
23.35
8.37
-3.90
-13.45
-19.31
-20.28
-15.98
-7.19
4.46
17.22
30.01
42.62
55.52
69.30
84.08
99.29
113.74
126.09
135.36
141.41
145.00
147.46
150.01
153.30
157.14
160.74
163.26
164.22
163.76
162.43
160.81
159.12
157.09
154.14
149.71
143.57
135.98
127.67
119.51
112.31
106.53
102.20
98.97
96.19
93.14
89.07
83.31
75.35
65.12
53.26
41.31
31.58
26.63
28.43
37.62
53.20
72.83
93.65
113.15
129.66
142.38
150.99
155.31
155.21
150.79
142.74
132.48
121.84
112.70
106.39
103.44
103.54
105.86
109.40
113.30
116.94
119.87
121.76
122.33
121.43
119.16
115.93
112.39
109.24
106.95
105.53
104.52
103.07
100.32
95.68
88.99
80.59
71.16
61.50
52.32
44.08
36.94
30.78
25.28
19.97
14.36
8.08
1.09
-6.07
-12.21
-15.76
-15.15
-9.42
1.33
15.91
32.34
48.43
62.36
73.00
79.90
83.17
83.19
80.53
75.95
70.38
64.86
60.31
57.39
56.29
56.77
58.26
60.12
61.81
62.99
63.49
63.29
62.40
60.82
58.54
55.59
52.04
48.03
43.72
39.26
34.75
30.19
25.53
20.72
15.75
10.73
5.85
1.32
-2.75
-6.44
-10.05
-14.02
-18.85
-24.88
-32.16
-40.22
-48.03
-54.10
-56.84
-55.00
-48.16
-36.92
-22.77
-7.67
6.53
18.52
27.69
34.03
37.76
39.22
38.69
36.52
33.23
29.53
26.17
23.78
22.60
22.49
22.99
23.60
23.94
23.91
23.63
23.22
22.67
21.77
20.23
17.85
14.67
11.03
7.39
4.15
1.47
-0.82
-3.05
-5.54
-8.42
-11.54
-14.58
-17.21
-19.28
-20.86
-22.24
-23.81
-26.01
-29.18
-33.47
-38.66
-44.05
-48.49
-50.63
-49.28
-43.89
-34.74
-22.86
-9.72
3.16
14.57
23.65
29.94
33.29
33.81
31.91
28.27
23.83
19.60
16.48
15.03
15.40
17.29
20.07
22.93
25.05
25.84
24.98
22.54
18.88
14.54
10.06
5.86
2.13
-1.10
-3.96
-6.60
-9.18
-11.82
-14.55
-17.40
-20.36
-23.36
-26.35
-29.35
-32.46
-35.90
-40.00
-45.01
-50.86
-56.98
-62.20
-64.93
-63.69
-57.62
-46.92
-32.96
-17.82
-3.74
7.55
15.22
19.29
20.41
19.41
17.07
14.05
10.90
8.08
5.98
4.78
4.39
4.46
4.47
3.96
2.70
0.80
-1.33
-3.18
-4.37
-4.83
-4.82
-4.74
-4.90
-5.29
-5.63
-5.49
-4.53
-2.65
-0.06
2.88
5.90
8.91
12.13
15.91
20.56
26.09
32.09
37.68
41.67
42.78
40.12
33.51
23.69
12.30
1.45
-6.94
-11.64
-12.57
-10.70
-7.73
-5.40
-4.97
-6.93
-10.95
-16.25
-21.83
-26.79
-30.41
-32.10
-31.47
-28.43
-23.29
-16.81
-10.19
-4.68
-1.25
-0.32
-1.65
-4.60
-8.32
-12.12
-15.55
-18.41
-20.64
-22.25
-23.27
-23.73
-23.69
-23.17
-22.14
-20.50
-18.26
-15.53
-12.62
-9.96
-7.99
-7.00
-7.08
-8.19
-10.16
-12.74
-15.56
-18.05
-19.45
-18.91
-15.83
-10.09
-2.26
6.55
14.89
21.45
25.31
26.17
24.24
20.14
14.72
8.88
3.53
-0.46
-2.39
-1.83
1.23
6.28
12.33
18.17
22.68
25.19
25.65
24.54
22.58
20.37
18.15
15.87
13.32
10.42
7.34
4.40
1.96
0.22
-0.90
-1.63
-2.34
-3.38
-5.05
-7.53
-10.88
-15.02
-19.78
-25.02
-30.65
-36.64
-42.92
-49.13
-54.55
-58.17
-59.03
-56.60
-51.06
-43.32
-34.69
-26.45
-19.43
-13.84
-9.34
-5.32
-1.24
3.17
7.89
12.74
17.61
22.53
27.71
33.31
39.26
45.18
50.40
54.15
55.85
55.15
52.00
46.57
39.11
29.95
19.54
8.42
-2.78
-13.32
-22.53
-29.83
-34.93
-37.93
-39.40
-40.26
-41.50
-43.76
-47.11
-51.07
-54.93
-58.19
-60.95
-63.85
-67.72
-73.05
-79.58
-86.26
-91.54
-93.94
-92.43
-86.73
-77.23
-64.82
-50.68
-36.12
-22.46
-10.92
-2.47
2.40
3.77
2.29
-0.94
-4.67
-7.72
-9.20
-8.65
-6.07
-1.88
3.25
8.55
13.37
17.33
20.31
22.41
23.84
24.75
25.24
25.33
24.96
24.12
22.82
21.13
19.12
16.85
14.36
11.64
8.68
5.47
2.01
-1.74
-5.82
-10.24
-14.80
-19.08
-22.38
-23.93
-23.08
-19.54
-13.56
-5.79
2.86
11.51
19.46
26.29
31.78
35.86
38.45
39.51
39.03
37.12
34.08
30.37
26.55
23.15
20.53
18.82
17.98
17.91
18.53
19.87
21.96
24.74
27.97
31.19
33.78
35.21
35.21
33.93
31.94
30.03
28.95
29.12
30.49
32.61
34.82
36.50
37.23
36.94
35.87
34.55
33.70
34.07
36.23
40.31
45.87
51.87
56.95
59.82
59.58
56.00
49.48
40.82
31.05
21.13
11.81
3.63
-3.16
-8.51
-12.49
-15.24
-16.87
-17.48
-17.18
-16.15
-14.59
-12.72
-10.69
-8.63
-6.68
-5.09
-4.23
-4.54
-6.26
-9.26
-13.02
-16.77
-19.81
-21.83
-22.99
-23.78
-24.80
-26.42
-28.75
-31.59
-34.55
-37.14
-38.77
-38.86
-36.94
-32.84
-26.87
-19.79
-12.60
-6.26
-1.31
2.09
4.16
5.20
5.46
5.07
4.15
2.87
1.50
0.33
-0.41
-0.63
-0.39
0.15
0.84
1.58
2.28
2.93
3.45
3.72
3.58
2.84
1.35
-0.88
-3.69
-6.72
-9.63
-12.15
-14.23
-16.02
-17.81
-19.88
-22.39
-25.37
-28.65
-31.84
-34.34
-35.42
-34.38
-30.90
-25.19
-18.00
-10.44
-3.58
1.87
5.73
8.21
9.75
10.70
11.26
11.45
11.33
10.99
10.67
10.58
10.85
11.39
11.92
12.07
11.52
10.09
7.81
4.88
1.60
-1.76
-5.02
-8.13
-11.09
-13.91
-16.57
-18.96
-20.90
-22.24
-22.90
-22.99
-22.78
-22.67
-23.06
-24.24
-26.33
-29.14
-32.17
-34.62
-35.57
-34.25
-30.27
-23.88
-15.87
-7.40
0.38
6.66
11.09
13.74
14.89
14.89
14.02
12.55
10.73
8.91
7.41
6.52
6.37
6.88
7.77
8.65
9.14
9.03
8.33
7.25
6.10
5.13
4.42
3.85
3.22
2.31
0.99
-0.75
-2.74
-4.76
-6.57
-8.04
-9.19
-10.23
-11.46
-13.11
-15.20
-17.53
-19.77
-21.75
-23.59
-25.68
-28.40
-31.76
-35.12
-37.32
-37.06
-33.42
-26.20
-15.95
-3.68
9.27
21.39
30.89
35.74
34.12
25.09
9.29
-10.89
-31.89
-50.03
-62.76
-69.25
-70.34
-67.72
-63.18
-58.03
-53.11
-49.03
-46.34
-45.53
-46.63
-49.02
-51.29
-51.60
-48.13
-39.57
-25.27
-5.35
19.36
47.36
76.51
104.21
127.79
145.00
154.43
155.56
148.73
134.76
114.83
90.43
63.34
35.65
9.44
-13.49
-31.87
-45.06
-52.86
-55.43
-53.16
-46.71
-37.07
-25.56
-13.56
-2.36
7.05
14.11
18.72
21.11
21.78
21.34
20.30
19.11
18.11
17.74
18.45
20.60
24.25
28.92
33.68
37.47
39.51
39.54
37.88
35.13
31.88
28.47
24.99
21.39
17.68
13.98
10.53
7.65
5.67
4.88
5.43
7.21
9.83
12.57
14.69
15.60
15.10
13.35
10.70
7.48
3.78
-0.44
-5.29
-10.63
-16.06
-20.88
-24.34
-25.78
-24.93
-22.01
-17.68
-12.94
-8.85
-6.32
-5.77
-7.14
-9.97
-13.68
-17.87
-22.51
-27.90
-34.34
-41.89
-50.21
-58.59
-66.24
-72.40
-76.39
-77.50
-75.01
-68.38
-57.66
-43.69
-27.99
-12.33
1.93
14.16
24.39
32.88
39.65
44.31
46.36
45.58
42.34
37.53
32.22
27.21
22.87
19.15
15.86
12.76
9.60
6.08
1.80
-3.63
-10.49
-18.76
-28.13
-38.01
-47.68
-56.35
-63.31
-67.95
-69.88
-69.01
-65.58
-60.12
-53.29
-45.66
-37.62
-29.30
-20.68
-11.72
-2.51
6.71
15.52
23.47
30.11
35.24
38.95
41.70
44.17
46.96
50.33
54.00
57.30
59.44
59.91
58.68
56.13
52.81
49.14
45.21
40.90
36.07
30.71
25.01
19.25
13.60
8.07
2.50
-3.29
-9.40
-15.70
-21.87
-27.48
-32.10
-35.54
-37.89
-39.40
-40.38
-40.90
-40.77
-39.52
-36.71
-32.18
-26.17
-19.31
-12.40
-6.09
-0.78
3.48
6.82
9.46
11.54
13.14
14.25
14.85
14.98
14.72
14.26
13.81
13.54
13.53
13.70
13.83
13.72
13.16
12.14
10.74
9.14
7.48
5.81
4.09
2.25
0.25
-1.90
-4.14
-6.35
-8.47
-10.44
-12.23
-13.83
-15.27
-16.66
-18.14
-19.94
-22.28
-25.28
-28.81
-32.44
-35.46
-37.08
-36.67
-33.97
-29.27
-23.33
-17.16
-11.73
-7.68
-5.29
-4.44
-4.86
-6.23
-8.27
-10.70
-13.17
-15.26
-16.47
-16.40
-14.81
-11.77
-7.61
-2.76
2.30
7.23
11.84
16.01
19.64
22.60
24.76
26.01
26.38
25.96
24.91
23.40
21.51
19.32
16.88
14.29
11.70
9.31
7.22
5.47
3.94
2.41
0.62
-1.65
-4.46
-7.63
-10.71
-13.02
-13.82
-12.61
-9.31
-4.35
1.39
6.93
11.40
14.33
15.68
15.69
14.76
13.27
11.52
9.74
8.14
6.82
5.86
5.23
4.92
4.88
5.10
5.55
6.17
6.85
7.41
7.68
7.62
7.27
6.79
6.33
5.97
5.61
5.06
4.15
2.78
0.99
-1.07
-3.20
-5.22
-7.00
-8.48
-9.69
-10.74
-11.84
-13.24
-15.17
-17.64
-20.39
-22.82
-24.17
-23.73
-21.16
-16.63
-10.77
-4.51
1.20
5.67
8.56
9.86
9.81
8.75
7.05
5.04
3.05
1.32
0.04
-0.73
-0.97
-0.78
-0.32
0.24
0.73
1.01
0.97
0.56
-0.26
-1.50
-3.15
-5.16
-7.42
-9.76
-11.95
-13.79
-15.10
-15.76
-15.77
-15.24
-14.39
-13.56
-13.16
-13.59
-15.17
-17.96
-21.78
-26.15
-30.38
-33.69
-35.42
-35.17
-32.97
-29.25
-24.78
-20.39
-16.65
-13.69
-11.09
-8.20
-4.46
0.17
5.09
9.31
11.88
12.49
11.66
10.67
11.01
13.88
19.62
27.65
36.59
44.63
49.96
51.24
47.96
40.62
30.68
20.17
11.05
4.73
1.66
1.55
3.74
7.66
13.03
19.70
27.31
35.08
41.82
46.32
47.82
46.31
42.56
37.82
33.41
30.31
28.96
29.33
31.00
33.43
36.14
38.71
40.80
42.07
42.15
40.73
37.70
33.21
27.73
21.83
16.01
10.49
5.26
0.21
-4.77
-9.54
-13.84
-17.37
-19.91
-21.41
-22.04
-22.12
-22.07
-22.33
-23.21
-24.78
-26.77
-28.61
-29.62
-29.35
-27.87
-25.83
-24.28
-24.26
-26.36
-30.48
-35.88
-41.49
-46.34
-49.86
-51.95
-52.84
-52.82
-51.98
-50.23
-47.39
-43.47
-38.81
-34.10
-30.24
-27.89
-27.22
-27.83
-28.87
-29.43
-28.92
-27.16
-24.36
-20.90
-17.04
-12.84
-8.05
-2.32
4.75
13.43
23.82
35.76
48.83
62.41
75.74
87.98
98.40
106.39
111.48
113.41
112.06
107.45
99.74
89.10
75.79
60.21
42.96
24.87
6.90
-10.03
-25.30
-38.53
-49.49
-57.89
-63.24
-64.94
-62.63
-56.52
-47.50
-37.01
-26.61
-17.52
-10.39
-5.31
-2.00
-0.04
0.98
1.45
1.74
2.21
3.13
4.62
6.61
8.81
10.86
12.36
13.07
13.01
12.36
11.48
10.72
10.26
10.04
9.80
9.19
7.87
5.66
2.65
-0.92
-4.65
-8.15
-11.14
-13.51
-15.33
-16.69
-17.70
-18.35
-18.55
-18.11
-16.83
-14.55
-11.23
-6.98
-2.04
3.21
8.34
12.94
16.69
19.40
21.03
21.63
21.34
20.36
18.91
17.27
15.74
14.63
14.30
15.12
17.42
21.29
26.48
32.29
37.75
41.82
43.77
43.33
40.70
36.34
30.78
24.44
17.64
10.68
3.93
-2.24
-7.58
-12.05
-15.88
-19.40
-22.87
-26.41
-29.92
-33.22
-35.97
-37.80
-38.23
-36.87
-33.55
-28.48
-22.33
-16.02
-10.46
-6.26
-3.58
-2.21
-1.79
-2.01
-2.66
-3.64
-4.77
-5.80
-6.42
-6.42
-5.85
-4.95
-4.18
-3.90
-4.23
-4.99
-5.72
-6.01
-5.63
-4.73
-3.75
-3.19
-3.39
-4.40
-6.03
-7.96
-9.99
-12.02
-14.05
-16.03
-17.88
-19.43
-20.62
-21.48
-22.06
-22.28
-21.88
-20.41
-17.38
-12.43
-5.47
3.27
13.17
23.27
32.35
39.11
42.52
42.11
38.23
31.93
24.66
17.90
12.79
10.00
9.79
12.06
16.35
21.81
27.22
31.15
32.32
29.95
23.99
14.98
3.81
-8.61
-21.54
-34.34
-46.31
-56.60
-64.30
-68.73
-69.76
-67.99
-64.56
-60.82
-57.83
-56.03
-55.12
-54.31
-52.54
-48.92
-43.02
-34.95
-25.39
-15.34
-5.89
2.08
8.01
11.70
13.20
12.70
10.52
7.11
3.04
-1.04
-4.57
-7.20
-8.90
-9.95
-10.80
-11.88
-13.50
-15.69
-18.30
-21.04
-23.68
-26.11
-28.38
-30.58
-32.78
-34.87
-36.60
-37.61
-37.57
-36.25
-33.62
-29.80
-25.16
-20.23
-15.64
-11.94
-9.45
-8.16
-7.63
-7.19
-6.06
-3.55
0.80
7.24
15.65
25.60
36.33
46.89
56.33
63.98
69.59
73.28
75.47
76.61
77.14
77.39
77.66
78.15
79.00
80.16
81.38
82.17
81.96
80.21
76.62
71.24
64.48
57.03
49.60
42.75
36.76
31.58
26.95
22.59
18.33
14.18
10.25
6.72
3.64
0.98
-1.52
-4.19
-7.46
-11.67
-16.99
-23.35
-30.45
-37.81
-44.96
-51.51
-57.18
-61.79
-65.25
-67.50
-68.60
-68.67
-67.84
-66.09
-63.20
-58.77
-52.49
-44.36
-34.88
-24.93
-15.56
-7.60
-1.44
2.95
5.87
7.64
8.46
8.44
7.75
6.66
5.53
4.74
4.50
4.86
5.71
6.92
8.37
9.98
11.61
13.02
13.82
13.65
12.26
9.68
6.16
2.11
-2.07
-6.05
-9.62
-12.64
-15.03
-16.80
-18.08
-19.15
-20.27
-21.60
-23.04
-24.25
-24.76
-24.24
-22.61
-20.15
-17.36
-14.76
-12.75
-11.51
-11.07
-11.32
-12.05
-12.85
-13.17
-12.38
-9.96
-5.76
-0.09
6.31
12.48
17.52
20.91
22.52
22.59
21.55
19.85
17.91
16.04
14.48
13.42
12.94
13.04
13.60
14.43
15.29
16.00
16.43
16.50
16.18
15.43
14.23
12.54
10.40
7.88
5.15
2.42
-0.08
-2.19
-3.80
-4.95
-5.73
-6.28
-6.72
-7.13
-7.53
-7.91
-8.26
-8.56
-8.75
-8.79
-8.67
-8.47
-8.42
-8.85
-10.04
-12.09
-14.69
-17.19
-18.75
-18.58
-16.29
-11.97
-6.22
0.08
6.04
10.93
14.38
16.24
16.62
15.80
14.12
11.99
9.79
7.89
6.49
5.72
5.54
5.81
6.31
6.84
7.26
7.55
7.76
7.97
8.20
8.37
8.30
7.82
6.87
5.56
4.12
2.82
1.82
1.10
0.53
-0.08
-0.85
-1.79
-2.84
-3.91
-4.92
-5.84
-6.66
-7.41
-8.11
-8.82
-9.63
-10.70
-12.17
-13.99
-15.88
-17.28
-17.52
-16.06
-12.74
-7.92
-2.35
3.04
7.49
10.55
12.13
12.37
11.53
9.87
7.67
5.29
3.12
1.52
0.71
0.74
1.44
2.51
3.62
4.50
5.00
5.12
4.97
4.72
4.50
4.35
4.18
3.83
3.15
2.07
0.67
-0.86
-2.33
-3.60
-4.61
-5.39
-5.96
-6.38
-6.69
-6.99
-7.44
-8.23
-9.55
-11.43
-13.68
-15.82
-17.21
-17.17
-15.28
-11.55
-6.48
-0.92
4.20
8.18
10.67
11.76
11.71
10.91
9.61
8.01
6.27
4.58
3.20
2.39
2.28
2.80
3.66
4.46
4.86
4.69
4.05
3.23
2.55
2.21
2.16
2.20
2.04
1.47
0.44
-0.95
-2.50
-3.99
-5.26
-6.26
-6.99
-7.50
-7.88
-8.22
-8.65
-9.35
-10.43
-11.91
-13.55
-14.81
-15.04
-13.67
-10.51
-5.89
-0.59
4.41
8.34
10.77
11.76
11.61
10.68
9.28
7.59
5.78
4.10
2.83
2.23
2.41
3.27
4.53
5.82
6.81
7.32
7.32
6.96
6.41
5.84
5.33
4.90
4.46
3.93
3.20
2.21
0.95
-0.53
-2.09
-3.55
-4.76
-5.63
-6.16
-6.43
-6.62
-6.94
-7.66
-8.92
-10.66
-12.53
-13.90
-14.10
-12.63
-9.46
-4.99
-0.02
4.57
8.13
10.36
11.31
11.21
10.35
8.97
7.28
5.51
3.90
2.67
1.97
1.83
2.19
2.94
3.90
4.91
5.78
6.38
6.63
6.55
6.20
5.71
5.16
4.55
3.85
2.98
1.94
0.80
-0.36
-1.44
-2.43
-3.36
-4.27
-5.19
-6.14
-7.15
-8.27
-9.63
-11.30
-13.22
-15.11
-16.49
-16.78
-15.55
-12.64
-8.33
-3.20
2.03
6.70
10.33
12.69
13.76
13.64
12.51
10.67
8.51
6.45
4.91
4.16
4.26
5.02
6.11
7.17
7.92
8.25
8.19
7.87
7.46
7.05
6.72
6.48
6.29
6.12
5.88
5.46
4.74
3.66
2.23
0.56
-1.16
-2.74
-4.07
-5.11
-5.93
-6.61
-7.27
-8.04
-9.06
-10.39
-11.92
-13.33
-14.07
-13.57
-11.47
-7.84
-3.17
1.78
6.23
9.65
11.82
12.76
12.64
11.66
10.07
8.11
6.09
4.32
3.04
2.40
2.36
2.81
3.54
4.34
5.05
5.59
5.92
6.05
6.04
5.89
5.56
5.01
4.24
3.32
2.36
1.44
0.59
-0.26
-1.21
-2.28
-3.38
-4.32
-4.94
-5.21
-5.24
-5.31
-5.67
-6.51
-7.86
-9.65
-11.64
-13.45
-14.57
-14.48
-12.84
-9.62
-5.24
-0.41
4.08
7.62
9.98
11.21
11.53
11.11
10.02
8.33
6.17
3.86
1.81
0.44
0.02
0.52
1.68
3.04
4.17
4.78
4.84
4.49
3.98
3.51
3.12
2.74
2.21
1.41
0.38
-0.78
-1.86
-2.76
-3.44
-3.97
-4.46
-4.99
-5.59
-6.25
-7.05
-8.09
-9.51
-11.35
-13.41
-15.21
-16.04
-15.30
-12.70
-8.47
-3.28
1.92
6.30
9.35
10.96
11.35
10.86
9.82
8.41
6.80
5.16
3.69
2.61
2.09
2.15
2.68
3.43
4.14
4.60
4.75
4.65
4.48
4.40
4.46
4.56
4.51
4.09
3.19
1.82
0.15
-1.60
-3.17
-4.41
-5.31
-5.98
-6.56
-7.22
-8.07
-9.16
-10.54
-12.23
-14.15
-16.03
-17.39
-17.67
-16.36
-13.33
-8.88
-3.69
1.41
5.73
8.91
10.88
11.79
11.81
11.07
9.73
7.96
6.06
4.37
3.22
2.78
3.04
3.81
4.80
5.69
6.26
6.45
6.28
5.84
5.25
4.60
3.94
3.31
2.71
2.12
1.51
0.78
-0.12
-1.25
-2.55
-3.92
-5.22
-6.30
-7.08
-7.62
-8.09
-8.78
-9.95
-11.72
-13.89
-15.94
-17.16
-16.88
-14.78
-10.98
-6.09
-0.99
3.48
6.71
8.47
8.84
8.09
6.59
4.69
2.71
0.87
-0.63
-1.69
-2.32
-2.63
-2.81
-3.10
-3.65
-4.51
-5.65
-6.94
-8.27
-9.59
-10.93
-12.35
-13.93
-15.71
-17.76
-20.08
-22.68
-25.49
-28.31
-30.90
-32.97
-34.31
-34.84
-34.70
-34.17
-33.58
-33.24
-33.33
-33.82
-34.39
-34.59
-33.85
-31.83
-28.54
-24.44
-20.28
-16.90
-14.87
-14.37
-15.15
-16.65
-18.16
-18.93
-18.26
-15.64
-10.90
-4.32
3.31
10.96
17.74
23.26
27.73
31.76
35.91
40.43
45.13
49.62
53.60
57.09
60.31
63.55
66.84
69.86
72.11
73.06
72.38
69.99
66.05
60.84
54.68
47.83
40.49
32.82
24.92
16.88
8.89
1.24
-5.63
-11.18
-14.92
-16.59
-16.25
-14.37
-11.68
-8.92
-6.65
-5.15
-4.45
-4.51
-5.37
-7.06
-9.49
-12.32
-14.88
-16.39
-16.27
-14.40
-11.18
-7.34
-3.62
-0.53
1.76
3.37
4.47
5.17
5.47
5.31
4.68
3.72
2.69
1.88
1.54
1.80
2.60
3.76
4.99
6.01
6.54
6.38
5.45
3.79
1.70
-0.35
-1.77
-2.04
-0.94
1.41
4.52
7.72
10.37
12.03
12.52
11.89
10.30
7.96
5.10
1.95
-1.18
-3.92
-5.92
-6.93
-6.91
-6.05
-4.69
-3.21
-1.91
-0.94
-0.33
-0.08
-0.23
-0.89
-2.15
-4.04
-6.41
-9.04
-11.74
-14.35
-16.89
-19.41
-22.01
-24.79
-27.84
-31.24
-35.02
-39.04
-42.95
-46.19
-48.15
-48.41
-46.91
-44.04
-40.52
-37.16
-34.54
-32.95
-32.31
-32.32
-32.64
-32.91
-32.83
-32.06
-30.29
-27.24
-22.86
-17.36
-11.25
-5.20
0.11
4.23
7.04
8.72
9.68
10.34
11.01
11.78
12.49
12.87
12.66
11.73
10.17
8.29
6.57
5.52
5.61
7.05
9.74
13.24
16.93
20.22
22.86
25.06
27.43
30.68
35.27
41.19
47.93
54.68
60.52
64.64
66.33
65.03
60.34
52.20
40.93
27.30
12.44
-2.42
-16.14
-27.79
-36.73
-42.66
-45.62
-46.01
-44.47
-41.66
-37.98
-33.31
-27.10
-18.53
-6.96
7.92
26.00
46.82
69.61
93.28
116.34
136.95
153.31
164.11
169.08
169.04
165.66
160.84
156.07
152.12
149.04
146.42
143.67
140.14
135.17
128.21
118.91
107.39
94.26
80.53
67.24
55.11
44.28
34.30
24.31
13.47
1.22
-12.45
-26.96
-41.35
-54.45
-65.24
-73.06
-77.76
-79.67
-79.52
-78.11
-76.16
-74.20
-72.47
-71.04
-69.87
-68.82
-67.77
-66.59
-65.19
-63.53
-61.66
-59.68
-57.77
-56.05
-54.57
-53.25
-51.98
-50.62
-49.11
-47.49
-45.90
-44.52
-43.53
-43.07
-43.17
-43.72
-44.46
-44.96
-44.67
-43.04
-39.76
-34.92
-29.04
-22.95
-17.53
-13.43
-10.88
-9.69
-9.47
-9.79
-10.36
-11.07
-11.86
-12.66
-13.31
-13.60
-13.39
-12.63
-11.47
-10.16
-9.00
-8.22
-7.94
-8.15
-8.77
-9.66
-10.74
-11.95
-13.25
-14.63
-16.07
-17.58
-19.17
-20.91
-22.85
-24.98
-27.27
-29.61
-31.91
-34.17
-36.43
-38.88
-41.73
-45.25
-49.60
-54.72
-60.28
-65.60
-69.75
-71.77
-70.98
-67.17
-60.76
-52.63
-43.87
-35.39
-27.74
-20.99
-14.95
-9.36
-4.14
0.51
4.25
6.81
8.22
8.83
9.23
9.95
11.23
13.02
15.20
17.80
21.08
25.35
30.65
36.56
42.37
47.44
51.67
55.54
59.81
64.98
70.81
76.39
80.59
82.70
82.82
81.78
80.61
79.99
79.94
79.90
79.14
77.18
73.99
69.83
64.93
59.29
52.49
43.97
33.41
21.08
7.94
-4.56
-14.92
-22.10
-25.80
-26.49
-25.20
-23.11
-21.25
-20.23
-20.26
-21.17
-22.60
-24.12
-25.31
-25.87
-25.54
-24.19
-21.77
-18.42
-14.39
-10.14
-6.17
-2.96
-0.80
0.26
0.36
-0.26
-1.32
-2.59
-3.91
-5.11
-6.05
-6.63
-6.90
-7.17
-7.98
-9.93
-13.46
-18.63
-25.05
-32.00
-38.68
-44.50
-49.11
-52.32
-53.95
-53.74
-51.51
-47.31
-41.69
-35.63
-30.19
-26.24
-24.14
-23.85
-25.09
-27.61
-31.12
-35.21
-39.09
-41.79
-42.60
-41.49
-39.29
-37.18
-36.15
-36.47
-37.67
-39.02
-40.02
-41.00
-42.94
-46.87
-53.07
-61.02
-69.74
-78.46
-87.08
-95.84
-105.02
-114.52
-123.81
-131.82
-137.77
-141.47
-143.37
-144.38
-145.10
-145.97
-147.34
-149.31
-150.72
-150.01
-145.58
-136.22
-121.51
-100.67
-73.58
-41.05
-4.61
35.41
78.21
121.96
163.90
200.53
230.87
255.00
273.27
286.30
297.44
309.55
323.51
337.90
348.89
355.71
358.60
358.00
354.71
353.06
356.64
366.34
380.01
392.54
402.81
410.73
415.76
395.41
337.07
244.71
138.03
50.44
-15.89
-64.03
-97.38
-119.78
-133.44
-137.91
-134.06
-124.89
-114.80
-109.12
-107.35
-106.99
-105.81
-102.72
-95.70
-84.58
-71.60
-60.79
-57.20
-61.24
-71.21
-84.88
-100.21
-114.20
-124.81
-131.45
-134.96
-137.36
-138.55
-137.89
-134.95
-129.74
-122.09
-112.40
-101.83
-92.15
-85.40
-82.16
-82.37
-85.72
-91.67
-99.12
-106.43
-111.55
-112.53
-108.24
-98.60
-85.04
-70.13
-56.62
-46.47
-40.30
-37.61
-37.38
-38.74
-41.14
-44.23
-47.42
-49.80
-50.26
-47.92
-42.52
-34.47
-24.65
-14.12
-3.79
5.68
13.83
20.30
24.76
26.98
26.91
24.75
21.04
16.57
12.27
9.06
7.61
8.17
10.44
13.68
16.91
19.27
20.32
20.16
19.30
18.33
17.68
17.39
17.22
16.80
15.92
14.64
13.33
12.50
12.68
14.13
16.82
20.35
24.12
27.55
30.30
32.40
34.25
36.43
39.51
43.77
49.01
54.53
59.21
61.67
60.63
55.25
45.39
31.72
15.55
-1.46
-17.70
-32.04
-43.92
-53.38
-60.73
-66.19
-69.57
-70.25
-67.39
-60.46
-49.62
-35.87
-20.82
-6.20
6.69
17.10
24.78
29.62
31.42
29.89
24.97
17.09
7.37
-2.58
-10.95
-16.28
-17.70
-15.09
-9.08
-0.68
9.02
19.20
29.53
40.12
51.28
63.18
75.54
87.63
98.52
107.54
114.58
120.26
125.70
132.19
140.76
151.90
165.33
179.96
193.96
205.01
210.83
209.83
201.68
187.53
169.65
150.66
132.76
117.16
104.18
93.52
84.61
76.69
68.73
59.32
46.85
29.87
7.44
-20.62
-53.56
-89.43
-124.94
-155.52
-176.60
-184.19
-176.19
-153.41
-119.65
-80.21
-40.37
-3.66
28.44
55.09
75.97
90.99
100.47
105.27
107.20
108.44
111.05
115.99
121.18
123.57
120.67
111.42
96.15
76.59
54.61
32.27
10.98
-12.72
-41.55
-75.26
-111.09
-146.42
-179.18
-210.14
-239.66
-267.14
-298.99
-337.91
-380.26
-418.80
-448.72
-468.09
-481.48
-492.79
-503.63
-526.10
-565.66
-616.46
-665.56
-702.79
-722.65
-731.38
-736.50
-744.10
-773.98
-835.72
-921.06
-1009.13
-1080.31
-1120.30
-1131.18
-1118.97
-989.94
-714.47
-343.68
27.02
330.13
525.52
654.90
746.72
814.01
859.86
866.53
820.06
724.15
598.26
465.68
349.29
258.77
200.08
175.32
169.41
168.78
169.22
174.49
188.44
213.87
245.14
277.64
309.18
331.58
341.18
341.75
340.93
343.62
350.90
356.63
355.39
345.06
323.11
291.14
254.91
221.44
195.13
177.33
164.86
154.19
142.77
128.04
109.36
88.40
68.32
52.17
42.16
38.47
40.08
45.11
51.32
56.61
59.54
59.53
56.70
51.62
45.04
37.73
30.39
23.63
17.92
13.47
10.26
8.10
6.65
5.66
4.92
4.40
4.13
4.15
4.38
4.59
4.38
3.36
1.26
-1.89
-5.77
-9.87
-13.70
-17.01
-19.82
-22.41
-25.22
-28.73
-33.34
-39.13
-45.72
-52.14
-56.95
-58.59
-55.92
-48.65
-37.58
-24.33
-10.89
1.02
10.32
16.63
20.09
21.08
19.97
17.20
13.29
8.92
4.89
1.93
0.50
0.57
1.68
3.08
4.07
4.25
3.67
2.77
2.06
1.85
2.05
2.17
1.55
-0.26
-3.30
-7.13
-11.05
-14.43
-16.95
-18.71
-20.13
-21.77
-24.14
-27.66
-32.48
-38.36
-44.51
-49.59
-51.94
-50.13
-43.48
-32.38
-18.26
-3.11
11.15
23.10
32.02
37.82
40.75
41.23
39.82
37.10
33.79
30.64
28.34
27.37
27.90
29.73
32.30
34.85
36.73
37.57
37.41
36.60
35.59
34.59
33.52
32.08
29.91
26.82
22.94
18.61
14.30
10.39
7.12
4.48
2.26
0.08
-2.47
-5.80
-10.18
-15.57
-21.50
-27.04
-30.91
-31.80
-28.75
-21.57
-10.98
1.55
14.22
25.45
34.21
40.17
43.51
44.68
44.15
42.38
39.82
36.99
34.44
32.66
31.94
32.27
33.37
34.79
36.09
36.96
37.25
36.97
36.16
34.85
33.06
30.80
28.19
25.37
22.52
19.73
16.97
14.16
11.26
8.31
5.46
2.88
0.63
-1.36
-3.33
-5.54
-8.25
-11.69
-15.94
-20.83
-25.84
-30.03
-32.24
-31.40
-26.98
-19.23
-9.22
1.57
11.66
19.95
25.90
29.43
30.76
30.23
28.29
25.47
22.42
19.80
18.13
17.68
18.33
19.71
21.27
22.52
23.16
23.12
22.53
21.56
20.32
18.86
17.19
15.32
13.30
11.17
8.93
6.54
3.97
1.26
-1.46
-3.97
-6.11
-7.86
-9.34
-10.75
-12.30
-14.18
-16.59
-19.68
-23.46
-27.62
-31.43
-33.82
-33.66
-30.25
-23.65
-14.67
-4.69
4.85
12.88
18.83
22.64
24.52
24.72
23.55
21.35
18.57
15.79
13.51
12.07
11.55
11.81
12.55
13.52
14.48
15.28
15.75
15.72
15.08
13.82
12.11
10.25
8.49
6.95
5.54
4.08
2.40
0.46
-1.60
-3.62
-5.44
-7.06
-8.53
-9.94
-11.33
-12.69
-14.03
-15.52
-17.43
-20.04
-23.32
-26.78
-29.42
-30.07
-27.81
-22.44
-14.61
-5.64
2.97
10.06
15.10
18.10
19.40
19.39
18.35
16.56
14.37
12.22
10.59
9.80
9.94
10.83
12.11
13.38
14.36
14.89
14.97
14.73
14.27
13.72
13.06
12.23
11.13
9.74
8.16
6.56
5.09
3.80
2.58
1.26
-0.33
-2.19
-4.19
-6.08
-7.64
-8.76
-9.51
-10.10
-10.91
-12.29
-14.50
-17.57
-21.20
-24.76
-27.36
-28.13
-26.49
-22.35
-16.23
-9.07
-1.97
4.15
8.70
11.48
12.60
12.32
10.95
8.86
6.45
4.16
2.42
1.51
1.53
2.35
3.67
5.15
6.48
7.46
7.99
8.04
7.63
6.85
5.76
4.50
3.18
1.89
0.68
-0.48
-1.64
-2.88
-4.25
-5.76
-7.32
-8.85
-10.21
-11.34
-12.27
-13.09
-14.00
-15.21
-16.89
-19.14
-21.84
-24.60
-26.77
-27.60
-26.47
-23.13
-17.92
-11.59
-5.16
0.47
4.75
7.54
8.95
9.21
8.47
6.84
4.52
1.80
-0.88
-3.07
-4.48
-5.02
-4.84
-4.24
-3.53
-2.99
-2.76
-2.84
-3.17
-3.62
-4.06
-4.43
-4.77
-5.18
-5.85
-6.88
-8.26
-9.84
-11.38
-12.63
-13.45
-13.89
-14.14
-14.43
-15.06
-16.21
-17.97
-20.22
-22.62
-24.54
-25.23
-24.01
-20.54
-15.01
-8.17
-1.07
5.26
10.19
13.51
15.39
16.09
15.84
14.76
12.95
10.66
8.32
6.41
5.28
5.02
5.44
6.19
6.89
7.33
7.46
7.35
7.07
6.67
6.14
5.48
4.67
3.68
2.49
1.08
-0.51
-2.17
-3.74
-5.10
-6.18
-7.07
-7.97
-9.11
-10.69
-12.76
-15.23
-17.76
-19.85
-20.82
-20.08
-17.25
-12.46
-6.29
0.31
6.37
11.12
14.22
15.69
15.76
14.78
13.03
10.80
8.40
6.21
4.58
3.77
3.85
4.65
5.77
6.76
7.22
6.98
6.12
4.94
3.79
2.90
2.29
1.74
0.97
-0.22
-1.87
-3.80
-5.76
-7.53
-8.99
-10.18
-11.23
-12.29
-13.59
-15.30
-17.55
-20.28
-23.11
-25.44
-26.46
-25.54
-22.42
-17.36
-11.12
-4.66
1.14
5.74
8.92
10.75
11.40
11.07
9.95
8.28
6.41
4.76
3.73
3.61
4.47
6.15
8.25
10.29
11.85
12.69
12.83
12.47
11.84
11.12
10.32
9.35
8.09
6.51
4.69
2.75
0.85
-0.97
-2.72
-4.51
-6.44
-8.61
-11.07
-13.80
-16.65
-19.24
-21.02
-21.40
-19.94
-16.59
-11.74
-6.10
-0.49
4.45
8.34
11.10
12.72
13.27
12.76
11.31
9.18
6.81
4.70
3.27
2.70
2.93
3.75
4.85
5.95
6.84
7.41
7.64
7.59
7.30
6.75
5.86
4.47
2.51
0.05
-2.63
-5.13
-7.10
-8.37
-9.00
-9.25
-9.46
-9.93
-10.90
-12.47
-14.57
-16.85
-18.69
-19.33
-18.07
-14.64
-9.31
-2.91
3.48
8.88
12.71
14.85
15.54
15.14
13.95
12.20
10.07
7.87
5.99
4.85
4.73
5.60
7.11
8.66
9.67
9.77
8.91
7.34
5.49
3.75
2.34
1.26
0.36
-0.59
-1.76
-3.19
-4.80
-6.35
-7.58
-8.28
-8.39
-8.07
-7.64
-7.49
-7.95
-9.18
-11.02
-13.08
-14.76
-15.44
-14.68
-12.32
-8.53
-3.80
1.23
5.86
9.55
11.92
12.85
12.45
11.02
8.93
6.61
4.41
2.59
1.27
0.47
0.15
0.19
0.48
0.90
1.33
1.69
1.95
2.08
2.06
1.81
1.25
0.33
-0.95
-2.47
-4.03
-5.45
-6.63
-7.56
-8.36
-9.20
-10.29
-11.77
-13.65
-15.75
-17.65
-18.77
-18.59
-16.78
-13.43
-9.03
-4.30
0.05
3.53
5.95
7.35
7.82
7.45
6.29
4.46
2.26
0.14
-1.39
-1.98
-1.55
-0.37
1.14
2.54
3.58
4.20
4.50
4.56
4.38
3.83
2.83
1.39
-0.27
-1.86
-3.12
-3.98
-4.57
-5.17
-6.01
-7.26
-8.91
-10.90
-13.07
-15.17
-16.81
-17.46
-16.61
-14.01
-9.83
-4.70
0.49
4.87
7.91
9.49
9.82
9.26
8.12
6.60
4.82
2.91
1.03
-0.61
-1.81
-2.41
-2.43
-2.00
-1.32
-0.64
-0.08
0.32
0.63
0.89
1.07
1.04
0.68
-0.06
-1.07
-2.14
-3.10
-3.91
-4.74
-5.83
-7.40
-9.44
-11.65
-13.43
-14.05
-12.94
-9.91
-5.28
0.20
5.61
10.12
13.28
14.99
15.44
14.93
13.72
12.04
10.12
8.25
6.68
5.62
5.12
5.06
5.24
5.46
5.58
5.56
5.41
5.14
4.71
4.03
3.02
1.67
0.05
-1.64
-3.21
-4.48
-5.41
-6.08
-6.67
-7.38
-8.39
-9.83
-11.67
-13.72
-15.57
-16.62
-16.27
-14.07
-10.00
-4.57
1.35
6.75
10.80
13.08
13.64
12.85
11.19
9.10
6.92
4.88
3.21
2.12
1.76
2.16
3.12
4.35
5.51
6.32
6.69
6.66
6.35
5.89
5.38
4.81
4.16
3.32
2.22
0.86
-0.70
-2.30
-3.74
-4.82
-5.44
-5.66
-5.70
-5.85
-6.40
-7.56
-9.35
-11.65
-14.14
-16.33
-17.62
-17.43
-15.44
-11.70
-6.68
-1.17
4.01
8.20
11.11
12.73
13.25
12.87
11.74
10.01
7.92
5.79
3.98
2.77
2.30
2.54
3.29
4.30
5.31
6.12
6.62
6.80
6.70
6.39
5.93
5.34
4.61
3.77
2.89
2.04
1.26
0.51
-0.32
-1.32
-2.48
-3.68
-4.74
-5.48
-5.87
-6.01
-6.12
-6.46
-7.27
-8.62
-10.42
-12.34
-13.89
-14.50
-13.74
-11.45
-7.80
-3.31
1.37
5.62
8.97
11.20
12.24
12.20
11.29
9.78
8.03
6.36
5.06
4.31
4.14
4.46
5.08
5.78
6.31
6.56
6.48
6.13
5.62
5.06
4.45
3.74
2.84
1.70
0.40
-0.87
-1.87
-2.47
-2.71
-2.77
-2.88
-3.21
-3.77
-4.43
-5.00
-5.37
-5.53
-5.62
-5.86
-6.50
-7.69
-9.48
-11.67
-13.85
-15.43
-15.86
-14.75
-12.05
-8.12
-3.58
0.84
4.54
7.17
8.63
9.01
8.47
7.17
5.32
3.14
0.96
-0.90
-2.15
-2.69
-2.61
-2.14
-1.54
-1.00
-0.58
-0.24
0.07
0.38
0.66
0.84
0.87
0.76
0.55
0.30
0.09
-0.07
-0.17
-0.29
-0.47
-0.79
-1.24
-1.78
-2.38
-2.96
-3.52
-4.05
-4.57
-5.15
-5.90
-6.91
-8.17
-9.50
-10.52
-10.70
-9.61
-7.07
-3.35
0.94
5.03
8.27
10.31
11.10
10.86
9.90
8.52
6.95
5.38
3.97
2.86
2.15
1.89
2.05
2.56
3.26
3.99
4.57
4.90
4.97
4.80
4.48
4.03
3.44
2.67
1.70
0.61
-0.47
-1.39
-2.03
-2.41
-2.66
-2.94
-3.38
-3.96
-4.57
-5.05
-5.28
-5.31
-5.31
-5.55
-6.23
-7.48
-9.25
-11.36
-13.46
-15.12
-15.90
-15.42
-13.53
-10.36
-6.34
-2.07
1.85
4.95
6.96
7.82
7.59
6.43
4.53
2.20
-0.24
-2.45
-4.14
-5.18
-5.60
-5.61
-5.51
-5.61
-6.08
-6.93
-8.04
-9.22
-10.36
-11.56
-13.04
-15.07
-17.75
-20.98
-24.42
-27.69
-30.61
-33.25
-35.90
-38.90
-42.47
-46.57
-51.06
-55.70
-60.35
-64.85
-69.07
-72.75
-75.59
-77.35
-77.87
-77.05
-74.74
-70.66
-64.47
-56.02
-45.56
-33.78
-21.62
-9.94
0.79
10.57
19.77
28.87
38.32
48.32
58.86
69.66
80.11
89.40
96.59
100.85
101.67
98.92
92.70
83.22
70.66
55.21
37.39
18.33
-0.04
-15.28
-25.10
-28.03
-23.98
-14.10
-0.31
15.42
31.51
46.83
60.39
71.14
77.99
80.24
78.03
72.50
65.36
58.30
52.26
47.39
43.29
39.67
36.65
34.85
34.94
37.12
40.88
45.09
48.49
50.19
49.96
48.20
45.69
43.17
41.11
39.58
38.35
37.06
35.39
33.17
30.43
27.37
24.20
21.10
18.06
14.97
11.71
8.28
4.92
2.01
-0.06
-1.16
-1.52
-1.71
-2.45
-4.39
-7.89
-12.95
-19.27
-26.34
-33.60
-40.46
-46.44
-51.16
-54.43
-56.26
-56.95
-56.91
-56.59
-56.24
-55.82
-55.05
-53.58
-51.10
-47.57
-43.17
-38.29
-33.37
-28.78
-24.76
-21.41
-18.79
-16.89
-15.71
-15.23
-15.30
-15.73
-16.20
-16.41
-16.11
-15.21
-13.78
-12.05
-10.28
-8.70
-7.47
-6.65
-6.29
-6.36
-6.80
-7.50
-8.30
-9.04
-9.64
-10.09
-10.44
-10.76
-11.08
-11.34
-11.52
-11.58
-11.57
-11.56
-11.67
-11.95
-12.49
-13.28
-14.26
-15.20
-15.77
-15.51
-14.07
-11.26
-7.26
-2.50
2.38
6.79
10.28
12.61
13.72
13.66
12.59
10.72
8.39
6.02
4.06
2.83
2.46
2.84
3.66
4.54
5.15
5.34
5.09
4.53
3.84
3.14
2.51
1.94
1.37
0.71
-0.08
-0.99
-1.94
-2.79
-3.43
-3.80
-3.95
-4.07
-4.34
-4.90
-5.82
-7.07
-8.56
-10.14
-11.61
-12.71
-13.11
-12.50
-10.69
-7.73
-3.90
0.29
4.26
7.52
9.74
10.86
10.99
10.32
9.10
7.55
5.83
4.11
2.53
1.27
0.48
0.27
0.63
1.43
2.44
3.38
4.05
4.34
4.29
3.99
3.54
2.97
2.26
1.32
0.12
-1.30
-2.82
-4.25
-5.44
-6.34
-7.00
-7.56
-8.24
-9.20
-10.55
-12.29
-14.25
-16.10
-17.38
-17.63
-16.53
-14.01
-10.30
-5.86
-1.29
2.89
6.31
8.80
10.32
10.93
10.76
9.94
8.70
7.27
5.92
4.86
4.19
3.92
3.97
4.22
4.60
5.04
5.51
5.94
6.24
6.28
5.96
5.26
4.21
2.92
1.52
0.12
-1.13
-2.16
-2.90
-3.38
-3.75
-4.20
-4.95
-6.16
-7.88
-9.99
-12.26
-14.35
-15.84
-16.32
-15.47
-13.17
-9.61
-5.29
-0.86
3.07
6.14
8.24
9.47
9.96
9.81
9.07
7.82
6.28
4.78
3.70
3.28
3.53
4.27
5.15
5.88
6.26
6.27
5.99
5.56
5.12
4.72
4.33
3.83
3.08
2.00
0.60
-1.01
-2.65
-4.12
-5.30
-6.14
-6.70
-7.12
-7.59
-8.35
-9.55
-11.26
-13.29
-15.25
-16.60
-16.83
-15.61
-12.92
-9.12
-4.81
-0.70
2.61
4.72
5.55
5.23
4.05
2.35
0.39
-1.60
-3.45
-4.99
-6.11
-6.76
-6.99
-6.95
-6.86
-6.92
-7.24
-7.82
-8.62
-9.55
-10.55
-11.57
-12.56
-13.42
-14.01
-14.18
-13.76
-12.66
-10.82
-8.27
-5.09
-1.48
2.23
5.71
8.57
10.59
11.65
11.83
11.39
10.68
10.08
9.98
10.65
12.20
14.57
17.43
20.34
22.78
24.38
24.93
24.47
23.19
21.35
19.24
17.06
15.01
13.18
11.71
10.67
10.12
10.07
10.38
10.83
11.18
11.23
10.91
10.30
9.58
8.86
8.17
7.40
6.45
5.24
3.85
2.46
1.24
0.34
-0.27
-0.69
-1.11
-1.66
-2.44
-3.46
-4.71
-6.24
-8.06
-10.10
-12.09
-13.57
-13.98
-12.90
-10.23
-6.33
-1.90
2.27
5.57
7.72
8.80
9.05
8.73
7.98
6.89
5.55
4.13
2.87
2.01
1.71
1.95
2.57
3.31
3.95
4.35
4.55
4.60
4.61
4.62
4.58
4.46
4.17
3.71
3.06
2.27
1.41
0.58
-0.14
-0.66
-1.00
-1.22
-1.42
-1.74
-2.31
-3.23
-4.60
-6.45
-8.74
-11.20
-13.40
-14.73
-14.65
-12.85
-9.42
-4.86
0.05
4.49
7.88
9.97
10.88
10.96
10.54
9.82
8.87
7.69
6.37
5.12
4.21
3.85
4.09
4.76
5.56
6.22
6.57
6.61
6.41
6.02
5.47
4.72
3.80
2.81
1.84
0.98
0.19
-0.61
-1.50
-2.47
-3.42
-4.20
-4.71
-4.96
-5.10
-5.32
-5.82
-6.69
-7.97
-9.59
-11.38
-13.08
-14.30
-14.58
-13.57
-11.13
-7.50
-3.23
0.97
4.49
6.98
8.43
9.07
9.17
8.89
8.30
7.47
6.49
5.55
4.87
4.59
4.68
5.02
5.46
5.90
6.30
6.64
6.87
6.84
6.43
5.60
4.43
3.14
1.95
1.02
0.37
-0.11
-0.55
-1.10
-1.81
-2.65
-3.58
-4.55
-5.51
-6.44
-7.37
-8.35
-9.48
-10.88
-12.52
-14.19
-15.45
-15.77
-14.70
-12.10
-8.25
-3.75
0.65
4.32
6.91
8.41
8.98
8.83
8.15
7.04
5.64
4.20
3.05
2.49
2.68
3.49
4.60
5.61
6.25
6.47
6.42
6.32
6.29
6.31
6.21
5.85
5.15
4.19
3.13
2.14
1.38
0.85
0.49
0.16
-0.30
-1.00
-1.95
-3.08
-4.24
-5.25
-5.98
-6.41
-6.62
-6.85
-7.37
-8.46
-10.16
-12.28
-14.27
-15.47
-15.25
-13.37
-10.03
-5.83
-1.55
2.17
4.97
6.83
7.94
8.48
8.59
8.31
7.70
6.90
6.14
5.61
5.42
5.52
5.74
5.93
6.02
6.05
6.13
6.33
6.66
7.02
7.25
7.22
6.83
6.06
5.01
3.82
2.67
1.73
1.08
0.69
0.46
0.23
-0.14
-0.71
-1.49
-2.40
-3.36
-4.26
-5.01
-5.53
-5.81
-5.89
-5.90
-6.00
-6.37
-7.18
-8.50
-10.27
-12.19
-13.77
-14.39
-13.57
-11.16
-7.42
-2.99
1.34
4.90
7.30
8.49
8.69
8.20
7.32
6.30
5.30
4.43
3.78
3.40
3.30
3.47
3.87
4.45
5.10
5.72
6.22
6.55
6.68
6.65
6.45
6.07
5.51
4.78
3.90
2.94
1.97
1.05
0.21
-0.53
-1.17
-1.71
-2.17
-2.56
-2.90
-3.22
-3.54
-3.88
-4.24
-4.62
-5.00
-5.36
-5.67
-5.93
-6.24
-6.69
-7.44
-8.58
-10.06
-11.65
-12.90
-13.32
-12.50
-10.30
-6.92
-2.88
1.17
4.64
7.16
8.63
9.13
8.84
7.96
6.65
5.13
3.60
2.29
1.37
0.95
1.05
1.59
2.42
3.35
4.19
4.78
5.09
5.10
4.92
4.67
4.42
4.18
3.91
3.51
2.91
2.08
1.08
0.08
-0.77
-1.38
-1.77
-2.09
-2.51
-3.17
-4.05
-5.07
-6.10
-7.08
-8.02
-8.98
-9.93
-10.86
-11.71
-12.57
-13.64
-15.14
-17.17
-19.51
-21.62
-22.76
-22.37
-20.28
-16.92
-13.08
-9.68
-7.35
-6.29
-6.33
-7.06
-8.09
-9.20
-10.25
-11.16
-11.77
-11.82
-11.10
-9.48
-6.96
-3.70
0.13
4.31
8.65
12.93
16.89
20.26
22.81
24.44
25.13
24.98
24.18
22.90
21.35
19.68
18.02
16.43
14.94
13.52
12.15
10.77
9.38
7.94
6.46
4.96
3.51
2.18
1.04
0.08
-0.80
-1.74
-2.86
-4.21
-5.71
-7.22
-8.56
-9.49
-9.80
-9.24
-7.69
-5.20
-2.08
1.18
4.05
6.16
7.47
8.14
8.43
8.48
8.28
7.75
6.82
5.62
4.40
3.46
2.99
3.06
3.53
4.22
4.93
5.50
5.84
5.96
5.87
5.61
5.20
4.63
3.89
2.99
1.99
1.01
0.15
-0.52
-1.02
-1.40
-1.76
-2.13
-2.53
-2.88
-3.14
-3.26
-3.27
-3.22
-3.21
-3.37
-3.81
-4.64
-5.91
-7.53
-9.26
-10.73
-11.54
-11.32
-9.92
-7.42
-4.15
-0.57
2.85
5.72
7.80
8.98
9.27
8.74
7.56
5.98
4.31
2.88
1.93
1.60
1.83
2.44
3.21
3.92
4.44
4.76
4.94
5.07
5.19
5.29
5.24
4.92
4.28
3.35
2.30
1.32
0.56
0.06
-0.28
-0.63
-1.15
-1.90
-2.84
-3.83
-4.72
-5.43
-5.95
-6.42
-7.03
-7.95
-9.22
-10.65
-11.86
-12.36
-11.78
-10.02
-7.30
-4.05
-0.77
2.15
4.48
6.15
7.13
7.41
6.99
5.91
4.38
2.70
1.21
0.20
-0.22
-0.11
0.34
0.93
1.50
2.02
2.49
2.95
3.34
3.55
3.43
2.90
1.95
0.71
-0.61
-1.83
-2.84
-3.65
-4.30
-4.90
-5.50
-6.11
-6.77
-7.51
-8.40
-9.47
-10.69
-11.86
-12.67
-12.75
-11.85
-9.88
-7.02
-3.60
-0.10
3.06
5.49
7.00
7.53
7.17
6.13
4.69
3.14
1.75
0.75
0.28
0.36
0.95
1.85
2.81
3.62
4.10
4.20
3.93
3.38
2.62
1.76
0.86
-0.03
-0.84
-1.56
-2.19
-2.77
-3.32
-3.88
-4.49
-5.23
-6.22
-7.50
-9.03
-10.55
-11.69
-12.03
-11.28
-9.39
-6.58
-3.26
0.13
3.20
5.72
7.53
8.58
8.86
8.45
7.50
6.26
5.02
4.05
3.49
3.40
3.71
4.33
5.09
5.83
6.37
6.59
6.44
5.98
5.34
4.68
4.08
3.51
2.90
2.14
1.25
0.32
-0.52
-1.15
-1.56
-1.86
-2.20
-2.74
-3.54
-4.63
-5.99
-7.55
-9.22
-10.76
-11.87
-12.19
-11.43
-9.51
-6.60
-3.12
0.40
3.50
5.88
7.47
8.33
8.59
8.34
7.70
6.78
5.72
4.76
4.09
3.83
4.02
4.53
5.22
5.91
6.47
6.85
7.07
7.14
7.08
6.86
6.44
5.78
4.91
3.92
2.95
2.14
1.56
1.19
0.94
0.63
0.16
-0.53
-1.34
-2.16
-2.85
-3.37
-3.75
-4.08
-4.43
-4.84
-5.36
-6.06
-7.06
-8.42
-10.04
-11.59
-12.59
-12.55
-11.21
-8.65
-5.27
-1.66
1.65
4.30
6.16
7.23
7.57
7.27
6.43
5.22
3.91
2.75
2.00
1.76
2.01
2.63
3.42
4.19
4.81
5.17
5.25
5.04
4.62
4.07
3.51
3.01
2.59
2.22
1.85
1.43
0.95
0.40
-0.21
-0.90
-1.69
-2.54
-3.38
-4.11
-4.62
-4.91
-5.04
-5.15
-5.41
-5.94
-6.78
-7.93
-9.27
-10.62
-11.68
-12.10
-11.53
-9.80
-7.01
-3.54
0.04
3.13
5.35
6.57
6.90
6.58
5.83
4.84
3.78
2.80
2.09
1.85
2.11
2.80
3.69
4.54
5.14
5.43
5.42
5.19
4.84
4.46
4.10
3.78
3.49
3.21
2.89
2.50
2.02
1.44
0.80
0.11
-0.56
-1.17
-1.66
-1.98
-2.17
-2.34
-2.59
-3.03
-3.65
-4.42
-5.30
-6.28
-7.33
-8.36
-9.12
-9.27
-8.49
-6.67
-3.98
-0.91
1.98
4.24
5.65
6.23
6.13
5.51
4.48
3.14
1.65
0.25
-0.77
-1.17
-0.90
-0.05
1.09
2.24
3.13
3.62
3.70
3.42
2.87
2.14
1.27
0.34
-0.62
-1.53
-2.34
-3.04
-3.66
-4.27
-4.96
-5.80
-6.81
-7.96
-9.17
-10.36
-11.46
-12.49
-13.49
-14.55
-15.72
-17.05
-18.53
-20.13
-21.77
-23.31
-24.52
-25.05
-24.55
-22.74
-19.55
-15.14
-9.90
-4.31
1.14
6.05
10.21
13.50
15.97
17.76
19.03
19.89
20.40
20.56
20.40
20.00
19.54
19.16
18.95
18.83
18.64
18.19
17.42
16.40
15.26
14.11
12.97
11.76
10.40
8.89
7.34
5.90
4.71
3.81
3.10
2.45
1.75
0.99
0.23
-0.44
-0.97
-1.41
-1.86
-2.47
-3.34
-4.52
-5.96
-7.53
-9.02
-10.13
-10.56
-10.03
-8.43
-5.88
-2.74
0.48
3.28
5.32
6.50
6.89
6.67
6.04
5.11
3.95
2.67
1.41
0.39
-0.24
-0.39
-0.14
0.35
0.85
1.21
1.38
1.37
1.26
1.13
1.01
0.90
0.81
0.72
0.61
0.44
0.14
-0.35
-1.04
-1.89
-2.80
-3.62
-4.26
-4.68
-4.94
-5.10
-5.28
-5.56
-6.05
-6.76
-7.61
-8.39
-8.76
-8.42
-7.16
-5.02
-2.30
0.57
3.17
5.16
6.38
6.80
6.53
5.73
4.63
3.50
2.59
2.05
1.94
2.20
2.68
3.23
3.71
4.01
4.14
4.09
3.92
3.66
3.30
2.80
2.15
1.36
0.55
-0.16
-0.69
-1.07
-1.38
-1.76
-2.27
-2.91
-3.58
-4.17
-4.58
-4.81
-4.86
-4.81
-4.80
-4.99
-5.52
-6.44
-7.63
-8.78
-9.47
-9.33
-8.16
-6.06
-3.32
-0.36
2.43
4.76
6.48
7.48
7.73
7.27
6.22
4.82
3.38
2.19
1.47
1.24
1.41
1.82
2.31
2.79
3.20
3.52
3.69
3.65
3.38
2.93
2.42
1.96
1.65
1.45
1.29
1.06
0.71
0.28
-0.17
-0.57
-0.88
-1.12
-1.34
-1.59
-1.89
-2.27
-2.70
-3.19
-3.73
-4.36
-5.15
-6.17
-7.40
-8.67
-9.66
-9.98
-9.30
-7.55
-4.98
-2.04
0.75
3.03
4.61
5.53
5.90
5.84
5.42
4.71
3.83
2.96
2.24
1.79
1.61
1.61
1.69
1.82
1.97
2.14
2.30
2.40
2.38
2.21
1.94
1.62
1.31
0.99
0.63
0.16
-0.44
-1.15
-1.87
-2.52
-2.99
-3.24
-3.27
-3.14
-2.97
-2.85
-2.89
-3.14
-3.61
-4.31
-5.23
-6.32
-7.47
-8.43
-8.95
-8.73
-7.63
-5.69
-3.15
-0.41
2.13
4.13
5.43
5.99
5.92
5.38
4.54
3.60
2.72
2.01
1.58
1.45
1.60
1.98
2.51
3.07
3.55
3.87
3.95
3.79
3.43
2.96
2.44
1.92
1.39
0.85
0.27
-0.30
-0.81
-1.22
-1.54
-1.80
-2.07
-2.40
-2.74
-3.03
-3.24
-3.37
-3.55
-3.89
-4.48
-5.30
-6.17
-6.86
-7.08
-6.65
-5.53
-3.80
-1.64
0.71
3.03
5.12
6.88
8.19
9.02
9.32
9.10
8.41
7.42
6.34
5.45
4.98
5.04
5.59
6.48
7.50
8.48
9.28
9.85
10.20
10.39
10.51
10.66
10.96
11.44
12.03
12.64
13.22
13.87
14.95
16.88
19.99
24.26
29.22
34.08
37.90
39.91
39.66
37.11
32.66
27.02
21.10
15.82
11.87
9.49
8.44
8.10
7.71
6.67
4.71
1.87
-1.57
-5.34
-9.16
-12.87
-16.28
-19.20
-21.49
-23.04
-23.84
-24.02
-23.76
-23.30
-22.82
-22.43
-22.17
-22.02
-21.94
-21.90
-21.92
-21.98
-22.10
-22.20
-22.16
-21.89
-21.35
-20.59
-19.80
-19.19
-18.88
-18.84
-18.88
-18.80
-18.46
-17.91
-17.37
-17.08
-17.19
-17.66
-18.27
-18.71
-18.66
-17.95
-16.53
-14.51
-12.08
-9.47
-6.90
-4.53
-2.48
-0.85
0.31
0.98
1.14
0.90
0.39
-0.16
-0.55
-0.65
-0.46
-0.05
0.45
0.99
1.53
2.07
2.61
3.09
3.40
3.45
3.17
2.57
1.72
0.73
-0.26
-1.15
-1.90
-2.50
-2.99
-3.42
-3.84
-4.24
-4.69
-5.26
-6.00
-6.93
-7.89
-8.60
-8.68
-7.83
-5.98
-3.33
-0.29
2.69
5.23
7.14
8.39
9.00
9.02
8.50
7.53
6.29
5.01
3.97
3.35
3.25
3.56
4.10
4.63
4.99
5.07
4.89
4.52
4.06
3.58
3.10
2.61
2.04
1.33
0.49
-0.40
-1.20
-1.82
-2.23
-2.50
-2.82
-3.38
-4.29
-5.55
-6.97
-8.23
-8.95
-8.80
-7.65
-5.59
-2.95
-0.14
2.46
4.60
6.16
7.10
7.42
7.10
6.23
4.98
3.65
2.54
1.88
1.69
1.85
2.13
2.33
2.32
2.08
1.62
1.02
0.36
-0.26
-0.72
-0.98
-1.11
-1.27
-1.65
-2.42
-3.64
-5.19
-6.85
-8.41
-9.72
-10.80
-11.75
-12.72
-13.83
-15.17
-16.72
-18.41
-20.06
-21.40
-22.12
-21.89
-20.55
-18.09
-14.65
-10.53
-6.03
-1.42
3.07
7.24
10.88
13.84
16.04
17.55
18.54
19.26
19.92
20.62
21.28
21.76
21.85
21.45
20.56
19.33
17.92
16.49
15.09
13.71
12.32
10.91
9.55
8.28
7.13
6.09
5.09
4.10
3.12
2.19
1.33
0.51
-0.37
-1.39
-2.59
-3.86
-4.98
-5.68
-5.69
-4.87
-3.24
-0.99
1.51
3.86
5.70
6.83
7.22
7.02
6.44
5.70
4.91
4.14
3.40
2.75
2.30
2.13
2.23
2.52
2.83
3.00
2.96
2.74
2.47
2.25
2.10
1.96
1.68
1.14
0.37
-0.54
-1.40
-2.07
-2.45
-2.58
-2.56
-2.53
-2.60
-2.82
-3.23
-3.84
-4.61
-5.45
-6.18
-6.56
-6.34
-5.38
-3.69
-1.51
0.76
2.77
4.25
5.12
5.46
5.44
5.18
4.77
4.26
3.71
3.19
2.82
2.68
2.78
3.05
3.37
3.63
3.79
3.81
3.71
3.49
3.17
2.73
2.19
1.56
0.85
0.09
-0.72
-1.55
-2.37
-3.17
-3.89
-4.51
-4.99
-5.31
-5.51
-5.65
-5.78
-5.96
-6.20
-6.54
-6.99
-7.59
-8.34
-9.12
-9.69
-9.73
-9.00
-7.43
-5.23
-2.79
-0.56
1.13
2.14
2.48
2.23
1.50
0.42
-0.82
-1.97
-2.74
-2.93
-2.53
-1.70
-0.72
0.11
0.65
0.91
1.03
1.16
1.34
1.53
1.64
1.58
1.36
1.02
0.61
0.19
-0.22
-0.55
-0.73
-0.74
-0.61
-0.54
-0.70
-1.12
-1.59
-1.64
-0.74
1.43
4.89
9.27
13.96
18.36
22.00
24.60
26.08
26.51
26.11
25.19
24.04
22.82
21.52
19.92
17.69
14.59
10.49
5.49
-0.18
-6.18
-12.07
-17.33
-21.48
-24.16
-25.30
-25.14
-24.12
-22.76
-21.37
-19.99
-18.44
-16.53
-14.18
-11.57
-9.05
-6.98
-5.59
-4.88
-4.63
-4.57
-4.43
-4.07
-3.48
-2.71
-1.86
-1.01
-0.23
0.44
1.02
1.51
1.91
2.16
2.18
1.88
1.20
0.19
-1.00
-2.16
-3.06
-3.46
-3.20
-2.20
-0.50
1.69
4.02
6.13
7.71
8.60
8.86
8.65
8.20
7.67
7.18
6.77
6.51
6.45
6.62
7.00
7.49
7.96
8.28
8.40
8.34
8.20
8.05
7.97
7.92
7.87
7.73
7.49
7.19
6.87
6.62
6.47
6.43
6.51
6.72
7.06
7.55
8.20
9.02
10.05
11.31
12.80
14.47
16.20
17.91
19.62
21.53
23.93
27.13
31.24
36.11
41.31
46.26
50.44
53.51
55.40
56.17
55.88
54.46
51.72
47.56
42.10
35.83
29.37
23.25
17.63
12.22
6.50
0.04
-7.23
-15.03
-22.99
-30.96
-39.19
-48.10
-58.03
-68.84
-79.89
-90.27
-99.14
-106.05
-111.00
-114.25
-116.15
-116.93
-116.69
-115.40
-112.89
-108.85
-102.77
-94.16
-82.66
-68.36
-51.94
-34.59
-17.68
-2.33
10.85
21.87
31.15
39.20
46.39
52.84
58.51
63.32
67.26
70.40
72.81
74.51
75.48
75.67
75.12
73.95
72.32
70.45
68.49
66.53
64.59
62.55
60.20
57.24
53.36
48.36
42.24
35.27
27.91
20.61
13.72
7.38
1.58
-3.75
-8.59
-12.80
-16.20
-18.65
-20.22
-21.16
-21.81
-22.45
-23.25
-24.21
-25.25
-26.25
-27.06
-27.49
-27.31
-26.34
-24.53
-22.05
-19.28
-16.67
-14.61
-13.26
-12.61
-12.50
-12.77
-13.31
-14.03
-14.80
-15.44
-15.75
-15.59
-14.96
-14.00
-12.94
-11.99
-11.24
-10.67
-10.21
-9.79
-9.40
-9.05
-8.81
-8.72
-8.78
-8.96
-9.18
-9.30
-9.26
-8.97
-8.48
-7.89
-7.36
-7.07
-7.17
-7.67
-8.47
-9.33
-9.97
-10.10
-9.51
-8.17
-6.23
-3.98
-1.77
0.09
1.41
2.17
2.47
2.46
2.22
1.80
1.24
0.58
-0.02
-0.34
-0.24
0.32
1.18
2.04
2.58
2.58
2.02
1.06
-0.02
-0.96
-1.58
-1.87
-1.97
-2.05
-2.24
-2.60
-3.09
-3.59
-4.00
-4.28
-4.47
-4.61
-4.78
-4.98
-5.25
-5.62
-6.13
-6.78
-7.42
-7.82
-7.68
-6.79
-5.11
-2.85
-0.34
2.07
4.07
5.45
6.17
6.22
5.71
4.81
3.74
2.77
2.08
1.77
1.81
2.06
2.38
2.62
2.72
2.62
2.33
1.88
1.35
0.81
0.38
0.13
0.06
0.14
0.29
0.43
0.55
0.63
0.69
0.71
0.60
0.30
-0.23
-0.94
-1.76
-2.63
-3.54
-4.47
-5.35
-5.99
-6.11
-5.47
-3.97
-1.71
0.95
3.57
5.74
7.17
7.75
7.52
6.61
5.24
3.66
2.11
0.85
0.04
-0.27
-0.12
0.36
1.00
1.64
2.17
2.54
2.75
2.85
2.85
2.76
2.54
2.18
1.66
1.03
0.35
-0.33
-0.94
-1.48
-1.94
-2.30
-2.56
-2.70
-2.78
-2.88
-3.11
-3.58
-4.27
-5.02
-5.57
-5.62
-4.97
-3.59
-1.64
0.57
2.67
4.38
5.51
6.02
5.96
5.47
4.70
3.81
2.95
2.22
1.70
1.39
1.27
1.30
1.42
1.58
1.72
1.80
1.83
1.82
1.84
1.90
1.98
2.01
1.92
1.63
1.15
0.56
-0.05
-0.58
-0.98
-1.26
-1.44
-1.59
-1.75
-2.02
-2.48
-3.15
-3.98
-4.76
-5.23
-5.15
-4.38
-2.98
-1.19
0.70
2.39
3.72
4.59
4.99
4.93
4.41
3.48
2.29
1.06
0.05
-0.50
-0.49
0.01
0.80
1.64
2.28
2.60
2.59
2.33
1.91
1.43
0.91
0.38
-0.15
-0.66
-1.07
-1.35
-1.53
-1.68
-1.93
-2.37
-3.06
-3.96
-4.98
-5.98
-6.76
-7.09
-6.77
-5.67
-3.86
-1.59
0.74
2.73
4.12
4.79
4.83
4.41
3.68
2.75
1.70
0.62
-0.36
-1.09
-1.43
-1.32
-0.81
-0.04
0.80
1.54
2.09
2.39
2.45
2.29
1.93
1.43
0.87
0.33
-0.12
-0.48
-0.82
-1.23
-1.77
-2.49
-3.37
-4.38
-5.42
-6.36
-7.00
-7.06
-6.35
-4.81
-2.62
-0.13
2.18
3.91
4.85
5.01
4.51
3.57
2.39
1.13
-0.06
-1.05
-1.67
-1.87
-1.63
-1.08
-0.43
0.11
0.38
0.35
0.12
-0.18
-0.44
-0.63
-0.79
-0.99
-1.28
-1.64
-1.99
-2.29
-2.57
-2.90
-3.44
-4.27
-5.36
-6.55
-7.49
-7.82
-7.26
-5.76
-3.50
-0.88
1.64
3.69
5.04
5.64
5.56
4.96
4.03
2.99
2.04
1.35
0.97
0.87
0.96
1.12
1.27
1.41
1.57
1.78
2.01
2.21
2.31
2.24
1.97
1.49
0.85
0.12
-0.59
-1.21
-1.67
-2.02
-2.39
-2.94
-3.81
-5.00
-6.34
-7.48
-8.04
-7.71
-6.42
-4.31
-1.74
0.89
3.24
5.09
6.31
6.85
6.71
5.94
4.73
3.34
2.10
1.29
1.03
1.26
1.80
2.42
2.93
3.24
3.35
3.34
3.28
3.22
3.18
3.10
2.90
2.51
1.93
1.22
0.50
-0.15
-0.70
-1.18
-1.63
-2.07
-2.51
-2.97
-3.53
-4.27
-5.21
-6.21
-6.96
-7.11
-6.38
-4.74
-2.39
0.24
2.71
4.66
5.92
6.45
6.33
5.70
4.71
3.60
2.58
1.82
1.43
1.40
1.68
2.17
2.78
3.38
3.86
4.05
3.90
3.44
2.83
2.27
1.94
1.86
1.94
2.04
2.04
1.98
1.93
2.04
2.36
2.84
3.36
3.78
4.01
4.07
4.00
3.89
3.77
3.57
3.23
2.71
2.20
2.04
2.72
4.65
7.96
12.40
17.37
22.06
25.73
28.02
29.03
29.34
29.82
31.27
34.14
38.37
43.35
48.26
52.45
55.82
58.94
62.79
68.28
75.75
84.70
93.96
102.24
108.71
113.41
117.32
122.05
129.36
140.63
156.38
175.81
196.59
215.12
227.28
229.50
219.88
198.75
168.35
131.78
91.83
49.99
6.22
-40.58
-91.35
-145.62
-200.70
-251.76
-292.96
-319.34
-328.41
-321.03
-300.89
-272.93
-241.71
-210.24
-180.02
-151.78
-126.27
-104.52
-87.37
-74.79
-65.49
-57.33
-48.11
-36.59
-22.99
-8.93
3.02
10.43
11.76
6.97
-2.47
-14.06
-25.13
-33.67
-38.90
-41.23
-41.74
-41.51
-41.07
-40.26
-38.49
-35.21
-30.29
-24.23
-17.86
-12.08
-7.37
-3.72
-0.70
2.25
5.58
9.61
14.63
21.02
29.16
39.09
50.01
60.21
67.41
69.55
65.65
56.27
43.21
28.84
15.17
3.41
-6.12
-13.64
-19.63
-24.68
-29.43
-34.53
-40.39
-46.94
-53.48
-58.88
-61.99
-62.07
-59.03
-53.34
-45.77
-37.11
-28.05
-19.10
-10.67
-3.06
3.48
8.79
12.71
15.13
15.93
15.06
12.58
8.82
4.33
-0.11
-3.68
-5.65
-5.68
-3.79
-0.43
3.68
7.77
11.18
13.43
14.34
13.91
12.36
10.10
7.63
5.45
3.89
3.06
2.83
2.93
3.12
3.26
3.41
3.70
4.28
5.19
6.34
7.53
8.52
9.12
9.22
8.85
8.11
7.12
6.00
4.81
3.55
2.20
0.74
-0.82
-2.35
-3.59
-4.19
-3.80
-2.20
0.54
4.08
7.86
11.23
13.66
14.86
14.82
13.76
12.01
9.91
7.74
5.69
3.86
2.35
1.20
0.44
0.02
-0.16
-0.30
-0.58
-1.11
-1.87
-2.73
-3.48
-3.95
-4.07
-3.91
-3.60
-3.33
-3.25
-3.50
-4.16
-5.27
-6.71
-8.22
-9.38
-9.76
-9.03
-7.14
-4.35
-1.12
2.00
4.57
6.36
7.32
7.52
7.10
6.18
4.91
3.49
2.16
1.13
0.57
0.49
0.81
1.33
1.84
2.16
2.22
1.99
1.52
0.88
0.14
-0.63
-1.35
-1.98
-2.49
-2.94
-3.44
-4.14
-5.14
-6.48
-8.02
-9.46
-10.42
-10.50
-9.48
-7.33
-4.33
-0.92
2.36
5.08
6.98
7.98
8.14
7.65
6.73
5.61
4.53
3.70
3.23
3.16
3.44
3.94
4.55
5.15
5.61
5.80
5.63
5.12
4.33
3.43
2.57
1.80
1.10
0.37
-0.46
-1.44
-2.56
-3.86
-5.36
-7.03
-8.69
-9.99
-10.47
-9.76
-7.75
-4.72
-1.16
2.33
5.29
7.47
8.83
9.39
9.24
8.46
7.23
5.75
4.34
3.26
2.64
2.48
2.66
3.01
3.38
3.70
3.92
4.03
4.02
3.86
3.55
3.11
2.59
2.03
1.41
0.67
-0.24
-1.42
-2.89
-4.59
-6.39
-8.04
-9.25
-9.68
-9.12
-7.50
-4.99
-1.90
1.37
4.44
7.01
8.91
9.98
10.19
9.60
8.37
6.81
5.26
4.01
3.24
2.95
3.04
3.37
3.79
4.18
4.44
4.49
4.24
3.68
2.87
1.94
1.03
0.22
-0.50
-1.24
-2.10
-3.19
-4.53
-6.08
-7.75
-9.35
-10.62
-11.21
-10.79
-9.15
-6.33
-2.70
1.18
4.67
7.30
8.86
9.40
9.14
8.36
7.32
6.22
5.25
4.52
4.10
3.96
4.05
4.26
4.48
4.64
4.70
4.64
4.44
4.11
3.63
2.98
2.17
1.22
0.17
-0.93
-2.02
-3.10
-4.23
-5.54
-7.17
-9.18
-11.50
-13.76
-15.44
-15.93
-14.81
-11.98
-7.81
-2.97
1.77
5.82
8.86
10.88
12.05
12.52
12.38
11.66
10.45
8.96
7.55
6.57
6.22
6.48
7.06
7.61
7.81
7.56
6.94
6.14
5.34
4.60
3.86
3.00
1.94
0.71
-0.59
-1.80
-2.79
-3.51
-3.94
-4.19
-4.41
-4.77
-5.50
-6.75
-8.54
-10.68
-12.77
-14.22
-14.48
-13.18
-10.30
-6.22
-1.62
2.76
6.35
8.92
10.56
11.51
12.02
12.18
12.00
11.48
10.75
10.09
9.81
10.13
11.01
12.19
13.30
13.99
14.07
13.58
12.70
11.65
10.62
9.70
8.86
8.03
7.19
6.33
5.51
4.83
4.32
3.97
3.74
3.56
3.39
3.23
3.04
2.78
2.34
1.63
0.63
-0.58
-1.85
-2.98
-3.86
-4.50
-5.04
-5.70
-6.65
-7.93
-9.41
-10.89
-12.18
-13.21
-14.10
-15.07
-16.34
-18.03
-20.14
-22.61
-25.31
-28.09
-30.63
-32.46
-33.02
-31.89
-28.92
-24.44
-19.10
-13.70
-8.85
-4.90
-1.90
0.23
1.57
2.21
2.25
1.96
1.73
1.98
3.01
4.90
7.46
10.37
13.29
16.04
18.60
21.12
23.84
26.97
30.57
34.52
38.59
42.51
46.08
49.21
51.93
54.29
56.37
58.18
59.67
60.78
61.42
61.51
61.00
59.91
58.30
56.27
53.87
51.06
47.80
44.05
39.88
35.48
31.04
26.67
22.34
17.89
13.20
8.22
3.03
-2.20
-7.28
-12.00
-16.07
-19.16
-20.88
-20.99
-19.48
-16.67
-13.13
-9.48
-6.22
-3.61
-1.71
-0.49
0.07
-0.07
-0.91
-2.33
-4.07
-5.74
-6.97
-7.50
-7.30
-6.54
-5.53
-4.58
-3.90
-3.59
-3.64
-4.03
-4.82
-6.12
-7.99
-10.31
-12.77
-14.95
-16.51
-17.37
-17.68
-17.75
-17.78
-17.78
-17.51
-16.74
-15.44
-13.85
-12.41
-11.48
-11.22
-11.37
-11.45
-11.02
-9.88
-8.22
-6.49
-5.08
-4.23
-3.95
-4.07
-4.30
-4.33
-3.89
-2.77
-0.84
1.96
5.57
9.61
13.66
17.36
20.51
23.15
25.42
27.57
29.85
32.41
34.74
36.23
36.58
35.98
34.91
33.71
32.33
30.31
27.08
21.28
12.41
1.14
-10.67
-20.99
-28.68
-33.79
-37.10
-39.50
-43.33
-50.09
-60.27
-72.70
-85.37
-96.32
-104.16
-108.05
-107.77
-106.04
-105.35
-107.69
-113.10
-120.66
-129.88
-141.17
-155.49
-159.16
-142.59
-103.71
-50.98
4.10
53.49
93.77
124.55
147.08
163.46
171.45
172.61
167.80
158.66
146.93
133.63
119.04
103.13
85.57
63.66
39.47
13.25
-13.97
-40.94
-66.90
-91.90
-116.42
-140.87
-166.14
-191.44
-215.24
-234.25
-245.01
-245.66
-236.59
-220.04
-198.82
-175.54
-150.97
-125.17
-97.40
-67.49
-36.59
-6.88
19.47
41.19
57.94
70.25
78.34
82.35
82.28
78.45
71.92
64.58
58.70
56.18
57.96
63.59
71.69
80.57
88.68
95.04
99.33
101.84
103.20
104.27
105.74
108.10
111.49
115.72
120.07
123.23
123.21
117.71
104.82
83.89
56.18
24.84
-5.79
-31.51
-49.44
-58.81
-60.82
-57.89
-52.53
-46.51
-40.47
-34.17
-27.10
-18.93
-9.76
-0.07
9.68
19.24
28.67
38.15
47.68
56.91
65.26
72.17
77.47
81.43
84.55
87.18
89.19
89.90
88.33
83.61
75.44
64.33
51.48
38.41
26.50
16.58
8.77
2.63
-2.58
-7.63
-13.00
-18.68
-24.23
-28.83
-31.69
-32.42
-31.32
-29.32
-27.54
-26.74
-26.90
-27.27
-26.73
-24.48
-20.52
-15.77
-11.85
-10.49
-12.91
-19.34
-28.65
-38.54
-46.00
-48.22
-43.65
-32.57
-17.12
-0.54
13.96
24.24
29.64
30.72
28.67
24.60
19.25
13.01
6.12
-1.09
-8.20
-14.87
-20.91
-26.35
-31.35
-36.06
-40.47
-44.41
-47.57
-49.61
-50.35
-49.90
-48.61
-47.05
-45.76
-45.08
-45.03
-45.39
-45.80
-45.93
-45.58
-44.72
-43.39
-41.77
-40.11
-38.86
-38.51
-39.42
-41.54
-44.32
-46.75
-47.70
-46.18
-41.57
-33.60
-22.29
-7.82
9.35
28.39
48.05
66.85
83.44
97.02
107.45
114.98
119.85
121.92
120.68
115.61
106.62
94.40
80.22
65.59
51.70
39.08
27.70
17.30
7.87
-0.09
-5.73
-8.15
-7.03
-2.98
2.38
6.82
8.38
6.27
1.50
-3.28
-4.78
-0.41
10.55
26.79
45.61
64.11
80.08
92.09
98.97
99.26
91.35
74.36
49.17
18.78
-12.46
-40.38
-62.43
-78.13
-88.63
-95.66
-100.66
-104.52
-107.82
-110.97
-114.15
-116.98
-118.34
-116.71
-110.91
-100.87
-87.92
-74.28
-62.14
-52.85
-46.53
-42.07
-37.70
-31.51
-22.10
-9.06
6.56
22.24
34.48
40.00
37.22
27.38
14.45
3.76
-0.15
4.46
16.02
30.58
43.72
52.38
55.56
53.93
48.69
40.73
30.44
18.11
4.58
-8.53
-19.19
-25.64
-27.06
-23.89
-17.55
-9.88
-2.43
3.79
8.27
10.51
9.65
4.60
-5.52
-20.43
-38.43
-56.69
-72.37
-83.76
-90.84
-94.85
-97.24
-98.71
-98.87
-96.76
-91.78
-84.31
-75.52
-66.70
-58.37
-49.98
-40.22
-27.79
-12.21
5.81
24.65
42.44
57.83
70.42
80.71
89.61
97.83
105.35
111.43
114.93
114.92
111.21
104.54
96.32
88.11
81.01
75.31
70.47
65.53
59.55
52.04
43.00
32.93
22.45
12.15
2.35
-6.86
-15.69
-24.78
-35.14
-47.80
-63.12
-80.17
-96.64
-109.52
-116.39
-116.62
-111.66
-104.33
-97.34
-92.05
-88.04
-83.79
-77.81
-69.53
-59.59
-49.24
-39.61
-31.18
-23.74
-16.64
-9.20
-0.87
8.49
18.64
28.94
38.59
46.74
52.88
57.03
59.73
61.84
64.18
67.19
70.82
74.55
77.63
79.20
78.21
73.24
62.62
44.95
20.10
-9.98
-41.20
-68.48
-87.55
-96.64
-96.97
-91.82
-84.87
-78.61
-73.71
-69.51
-64.96
-59.30
-52.27
-43.66
-33.15
-20.27
-4.88
12.48
30.56
47.79
62.83
75.07
84.76
92.65
99.45
105.18
108.83
108.39
101.58
86.77
63.83
34.44
1.69
-30.70
-59.22
-81.25
-95.21
-100.59
-97.75
-87.78
-72.33
-53.30
-32.55
-11.57
8.64
27.59
45.17
61.52
76.90
91.67
106.09
120.22
133.73
145.92
155.95
163.06
166.80
167.22
164.87
160.80
156.34
152.81
150.91
150.15
148.51
142.94
130.54
110.15
83.45
54.88
30.33
15.14
12.27
21.34
39.11
60.75
81.42
97.35
106.25
107.06
99.66
84.56
62.97
36.80
8.55
-18.94
-43.08
-62.07
-75.51
-84.40
-90.68
-96.39
-102.74
-109.63
-115.86
-119.87
-120.55
-117.82
-112.63
-106.51
-100.97
-96.99
-94.86
-94.33
-94.74
-95.13
-94.44
-91.57
-85.78
-77.07
-66.25
-54.95
-45.22
-39.08
-37.85
-41.48
-47.96
-53.39
-52.72
-41.47
-17.62
17.14
57.35
95.33
123.43
136.28
132.01
112.12
80.49
42.01
1.45
-37.08
-70.48
-96.83
-115.41
-126.68
-131.99
-133.18
-132.15
-130.55
-129.46
-129.32
-129.92
-130.53
-130.23
-128.24
-124.23
-118.28
-110.84
-102.38
-93.26
-83.63
-73.57
-63.18
-52.83
-43.17
-34.95
-28.69
-24.41
-21.41
-18.44
-14.13
-7.61
1.12
11.22
21.56
31.46
41.24
52.12
65.52
82.10
100.97
119.45
133.43
138.26
129.79
105.56
65.62
13.11
-45.98
-103.66
-151.61
-183.02
-194.20
-185.31
-160.13
-124.97
-87.19
-53.57
-28.99
-15.59
-12.49
-16.31
-22.30
-25.88
-24.01
-15.96
-3.07
12.08
26.92
39.75
50.04
58.05
64.30
69.06
72.38
74.33
75.36
76.48
79.02
84.08
91.98
102.01
112.69
122.38
129.91
134.99
138.02
139.53
139.60
137.50
131.86
121.12
103.91
79.14
45.97
4.02
-45.81
-100.17
-152.81
-195.36
-219.76
-221.27
-200.53
-163.64
-120.10
-79.42
-48.25
-29.08
-20.81
-20.58
-25.37
-32.96
-41.88
-50.84
-58.42
-63.11
-63.79
-60.09
-52.66
-43.00
-32.97
-24.23
-17.70
-13.50
-11.20
-10.23
-10.36
-11.69
-14.61
-19.37
-25.82
-33.34
-41.04
-48.16
-54.42
-60.14
-66.00
-72.50
-79.33
-85.08
-87.46
-84.02
-73.02
-54.17
-28.77
0.76
31.70
61.85
89.88
115.18
137.39
155.89
169.75
177.99
180.17
176.76
169.08
159.03
148.46
138.70
130.47
123.93
118.97
115.48
113.39
112.79
113.77
116.43
120.74
126.54
133.48
141.21
149.48
158.31
167.79
177.81
187.84
197.11
204.97
211.42
217.05
222.58
227.98
231.85
231.45
223.62
206.04
178.14
141.20
97.65
50.05
0.42
-49.77
-99.19
-146.32
-189.55
-227.72
-260.50
-288.39
-312.07
-331.70
-346.39
-354.47
-354.29
-345.19
-328.02
-304.93
-278.64
-251.61
-225.45
-200.94
-178.34
-157.70
-139.05
-122.24
-106.82
-91.98
-76.78
-60.56
-43.32
-25.87
-9.55
4.24
14.71
22.00
27.10
31.43
36.25
42.26
49.53
57.77
66.67
76.04
85.71
95.34
104.24
111.59
116.70
119.43
120.31
120.35
120.63
121.95
124.61
128.45
132.98
137.57
141.60
144.42
145.50
144.51
141.36
136.22
129.36
120.94
110.77
98.27
82.67
63.35
40.35
14.59
-12.25
-38.21
-61.73
-82.13
-99.62
-114.94
-128.80
-141.44
-152.60
-161.77
-168.55
-172.77
-174.45
-173.62
-170.19
-164.06
-155.25
-143.99
-130.78
-116.22
-100.93
-85.50
-70.44
-56.15
-42.84
-30.47
-18.86
-7.84
2.48
11.71
19.25
24.60
27.60
28.46
27.69
25.85
23.36
20.50
17.45
14.41
11.62
9.37
7.80
6.84
6.21
5.57
4.68
3.61
2.75
2.59
3.51
5.55
8.35
11.40
14.23
16.69
18.91
21.11
23.38
25.51
27.08
27.70
27.25
25.95
24.27
22.69
21.47
20.54
19.52
17.99
15.74
12.87
9.80
7.04
4.90
3.36
2.11
0.72
-1.08
-3.32
-5.75
-7.97
-9.52
-10.07
-9.33
-7.19
-3.71
0.79
5.71
10.27
13.72
15.55
15.73
14.73
13.29
12.13
11.64
11.71
11.88
11.50
10.03
7.24
3.16
-1.91
-7.53
-13.23
-18.54
-23.06
-26.53
-28.81
-29.98
-30.15
-29.51
-28.24
-26.55
-24.73
-23.12
-21.98
-21.27
-20.47
-18.82
-15.60
-10.78
-5.26
-0.77
0.73
-2.20
-9.79
-20.97
-33.74
-46.02
-56.33
-64.34
-70.93
-77.89
-87.35
-101.06
-119.58
-141.78
-164.88
-185.18
-199.38
-205.88
-205.58
-201.65
-198.39
-199.54
-206.96
-219.98
-235.78
-250.34
-259.78
-261.29
-253.80
-237.96
-215.85
-190.36
-164.49
-140.72
-120.62
-104.76
-92.77
-83.70
-76.32
-69.40
-62.04
-53.91
-45.37
-37.43
-31.33
-27.73
-26.14
-24.63
-20.34
-10.55
6.02
28.55
54.26
79.48
101.09
117.50
129.04
137.26
144.04
150.61
157.29
163.70
169.38
174.26
178.78
183.81
190.15
198.35
208.53
220.38
233.20
245.93
257.23
265.76
270.51
271.14
268.13
262.63
256.09
249.70
243.97
238.57
232.29
223.52
210.75
193.20
171.28
146.46
120.95
96.97
76.29
59.99
48.59
42.15
40.27
41.99
45.65
49.27
50.93
49.34
44.10
35.53
24.23
10.77
-4.41
-20.90
-38.22
-55.81
-73.19
-90.07
-106.20
-121.22
-134.45
-144.91
-151.68
-154.17
-152.43
-147.05
-138.94
-128.98
-117.93
-106.37
-94.73
-83.49
-73.09
-64.06
-56.85
-51.81
-49.14
-48.94
-51.13
-55.39
-61.10
-67.31
-72.78
-76.21
-76.48
-72.86
-65.21
-53.94
-39.91
-24.27
-8.37
6.36
18.57
27.23
31.91
32.91
31.30
28.62
26.49
26.14
28.14
32.35
38.06
44.36
50.47
55.97
60.91
65.60
70.40
75.34
80.05
83.79
85.77
85.51
83.01
78.65
72.80
65.35
55.46
41.75
22.70
-2.72
-34.71
-72.55
-114.63
-158.60
-201.33
-239.13
-268.12
-285.04
-288.17
-278.00
-257.23
-230.01
-200.70
-172.69
-147.79
-126.26
-107.37
-90.15
-73.82
-58.01
-42.63
-27.79
-13.67
-0.55
11.24
21.32
29.42
35.47
39.70
42.56
44.64
46.42
48.06
49.31
49.49
47.81
43.77
37.59
30.53
24.66
22.32
25.33
34.24
48.19
65.16
82.68
98.64
111.70
121.34
127.59
130.69
130.91
128.61
124.28
118.66
112.67
107.15
102.71
99.62
97.77
96.75
96.02
94.96
93.06
90.01
85.80
80.65
74.96
69.07
63.17
57.24
51.12
44.61
37.57
29.91
21.66
13.06
4.67
-2.54
-7.30
-8.42
-5.22
2.06
12.29
23.71
34.49
43.23
49.15
52.03
51.97
49.16
43.85
36.46
27.68
18.45
9.76
2.32
-3.66
-8.50
-12.85
-17.40
-22.59
-28.51
-34.97
-41.62
-48.10
-54.04
-59.15
-63.14
-65.77
-66.89
-66.51
-64.78
-61.95
-58.22
-53.60
-47.80
-40.09
-29.53
-15.23
3.27
25.66
50.71
76.52
100.98
122.25
139.10
151.07
158.28
161.21
160.59
157.23
151.99
145.74
139.18
132.76
126.59
120.51
114.23
107.50
100.20
92.39
84.24
75.86
67.32
58.64
49.86
41.14
32.80
25.20
18.67
13.33
9.02
5.36
1.82
-2.11
-6.73
-11.96
-17.25
-21.73
-24.30
-24.09
-20.64
-14.19
-5.57
4.05
13.47
21.76
28.38
33.15
36.09
37.32
36.99
35.30
32.48
28.84
24.70
20.31
15.91
11.61
7.52
3.68
0.12
-3.15
-6.21
-9.14
-12.06
-15.05
-18.11
-21.16
-24.12
-26.92
-29.56
-32.14
-34.87
-37.95
-41.59
-45.84
-50.49
-55.00
-58.53
-60.12
-59.08
-55.22
-49.06
-41.66
-34.31
-28.08
-23.65
-21.28
-21.01
-22.88
-27.02
-33.61
-42.64
-53.64
-65.57
-76.77
-85.15
-88.66
-85.70
-75.62
-58.78
-36.45
-10.40
17.38
44.93
70.33
91.72
107.50
116.63
118.99
115.45
107.62
97.36
86.26
75.29
64.82
54.75
44.78
34.61
24.15
13.72
4.08
-3.70
-8.47
-9.50
-6.80
-1.12
6.18
13.61
19.92
24.35
26.61
26.83
25.35
22.69
19.47
16.29
13.64
11.75
10.61
9.92
9.30
8.43
7.14
5.48
3.58
1.63
-0.31
-2.26
-4.34
-6.71
-9.40
-12.36
-15.40
-18.31
-20.89
-23.11
-25.06
-26.97
-29.18
-31.99
-35.60
-39.96
-44.65
-48.88
-51.63
-51.93
-49.15
-43.35
-35.23
-26.04
-17.16
-9.73
-4.37
-1.16
0.18
0.09
-1.03
-2.82
-4.92
-6.90
-8.29
-8.73
-8.09
-6.53
-4.49
-2.52
-1.05
-0.30
-0.22
-0.60
-1.16
-1.74
-2.36
-3.16
-4.35
-6.09
-8.35
-10.94
-13.53
-15.82
-17.68
-19.16
-20.52
-22.09
-24.25
-27.22
-31.08
-35.53
-39.91
-43.28
-44.61
-43.20
-38.90
-32.24
-24.28
-16.25
-9.17
-3.61
0.31
2.74
3.94
4.11
3.39
1.94
-0.01
-2.13
-4.06
-5.50
-6.35
-6.69
-6.78
-6.93
-7.39
-8.28
-9.59
-11.19
-12.93
-14.69
-16.38
-17.94
-19.27
-20.30
-20.97
-21.29
-21.35
-21.25
-21.08
-20.89
-20.69
-20.53
-20.47
-20.64
-21.15
-22.04
-23.16
-24.17
-24.57
-23.75
-21.17
-16.49
-9.72
-1.23
8.25
17.74
26.32
33.19
37.95
40.50
41.03
39.89
37.56
34.53
31.29
28.30
25.86
24.10
22.88
21.92
20.82
19.27
17.12
14.47
11.57
8.78
6.38
4.53
3.16
2.12
1.18
0.18
-0.90
-1.99
-2.93
-3.58
-3.90
-3.93
-3.77
-3.63
-3.77
-4.47
-6.02
-8.54
-11.83
-15.37
-18.40
-20.16
-20.17
-18.42
-15.35
-11.70
-8.23
-5.52
-3.86
-3.26
-3.61
-4.68
-6.27
-8.16
-10.09
-11.76
-12.85
-13.07
-12.26
-10.46
-7.93
-5.07
-2.35
-0.17
1.31
2.11
2.46
2.64
2.88
3.25
3.59
3.61
3.00
1.59
-0.56
-3.16
-5.84
-8.26
-10.24
-11.79
-13.05
-14.19
-15.37
-16.68
-18.17
-19.83
-21.48
-22.73
-23.04
-21.81
-18.61
-13.44
-6.73
0.75
8.12
14.61
19.81
23.53
25.85
26.91
26.87
25.94
24.35
22.42
20.44
18.65
17.19
16.02
15.04
14.09
13.02
11.75
10.27
8.61
6.84
5.04
3.24
1.48
-0.25
-2.02
-3.91
-5.97
-8.24
-10.65
-13.07
-15.35
-17.34
-18.99
-20.34
-21.52
-22.68
-24.02
-25.69
-27.82
-30.35
-33.02
-35.29
-36.49
-36.06
-33.76
-29.80
-24.79
-19.57
-14.87
-11.16
-8.60
-7.17
-6.76
-7.31
-8.72
-10.82
-13.27
-15.57
-17.14
-17.56
-16.63
-14.46
-11.34
-7.62
-3.53
0.80
5.36
10.10
14.88
19.49
23.66
27.19
29.97
32.01
33.43
34.44
35.30
36.27
37.57
39.26
41.23
43.24
45.03
46.41
47.55
48.98
51.58
56.39
64.18
75.11
88.46
102.68
115.72
125.45
130.17
128.91
121.55
108.82
92.22
73.87
56.30
42.14
33.66
32.41
38.97
52.97
73.30
98.45
126.65
156.02
184.53
209.98
230.12
242.93
246.89
241.28
226.24
202.66
171.98
135.94
96.45
55.41
14.62
-24.31
-60.12
-92.01
-119.74
-143.65
-164.50
-183.31
-200.96
-217.97
-234.32
-249.55
-263.03
-274.27
-283.12
-289.69
-294.17
-296.57
-296.61
-293.85
-288.04
-279.28
-268.14
-255.48
-242.13
-228.67
-215.28
-201.77
-187.79
-173.00
-157.21
-140.48
-123.05
-105.32
-87.77
-70.85
-54.96
-40.41
-27.38
-15.93
-5.96
2.79
10.70
18.20
25.62
33.08
40.48
47.51
53.69
58.54
61.60
62.57
61.40
58.29
53.69
48.16
42.20
36.23
30.53
25.41
21.26
18.51
17.51
18.28
20.48
23.55
26.87
30.01
32.76
35.08
36.97
38.38
39.28
39.65
39.61
39.29
38.83
38.25
37.50
36.47
35.06
33.20
30.85
28.01
24.76
21.23
17.67
14.32
11.39
8.94
6.91
5.11
3.32
1.40
-0.78
-3.27
-6.12
-9.25
-12.43
-15.18
-16.87
-16.92
-15.02
-11.29
-6.27
-0.75
4.47
8.79
11.96
13.94
14.88
14.96
14.35
13.21
11.74
10.14
8.66
7.51
6.83
6.64
6.82
7.15
7.40
7.40
7.12
6.61
5.96
5.19
4.28
3.18
1.81
0.18
-1.68
-3.70
-5.84
-8.08
-10.40
-12.78
-15.15
-17.48
-19.79
-22.25
-25.12
-28.68
-33.09
-38.24
-43.72
-48.80
-52.65
-54.55
-54.17
-51.69
-47.77
-43.35
-39.39
-36.57
-35.12
-34.79
-35.04
-35.16
-34.49
-32.53
-29.04
-24.02
-17.69
-10.49
-2.96
4.35
10.97
16.50
20.65
23.17
23.85
22.62
19.57
15.04
9.55
3.74
-1.73
-6.26
-9.32
-10.52
-9.58
-6.41
-1.14
5.94
14.36
23.57
33.00
42.07
50.21
56.90
61.71
64.40
64.97
63.74
61.31
58.48
56.11
54.95
55.45
57.64
61.15
65.28
69.25
72.34
73.99
73.78
71.38
66.51
58.95
48.71
36.11
21.91
7.24
-6.55
-18.17
-26.62
-31.38
-32.48
-30.38
-25.80
-19.47
-11.94
-3.61
5.25
14.41
23.47
31.93
39.19
44.59
47.61
47.84
45.07
39.31
30.83
20.22
8.45
-3.29
-13.72
-21.84
-27.14
-29.77
-30.47
-30.25
-29.96
-29.95
-30.00
-29.47
-27.72
-24.34
-19.40
-13.35
-6.79
-0.31
5.64
10.78
14.92
17.90
19.61
20.01
19.28
17.76
15.98
14.44
13.55
13.40
13.78
14.24
14.25
13.45
11.80
9.58
7.27
5.38
4.22
3.86
4.13
4.75
5.47
6.13
6.67
7.08
7.37
7.46
7.20
6.37
4.70
2.00
-1.79
-6.42
-11.31
-15.71
-18.80
-20.05
-19.39
-17.25
-14.41
-11.74
-9.85
-8.97
-8.93
-9.36
-9.97
-10.65
-11.47
-12.49
-13.64
-14.67
-15.21
-14.99
-13.92
-12.09
-9.75
-7.21
-4.82
-3.03
-2.34
-3.08
-5.26
-8.39
-11.63
-14.13
-15.42
-15.59
-15.22
-15.00
-15.30
-16.01
-16.65
-16.71
-15.99
-14.67
-13.18
-11.82
-10.50
-8.73
-5.78
-1.11
5.35
13.09
21.14
28.37
33.95
