1495437325.00
64.000000
-0.00
-0.00
-0.00
-0.00
-0.00
-0.00
-0.00
-0.00
-0.00
-0.00
0.00
0.01
0.01
-0.00
-0.03
-0.05
-0.05
0.00
0.13
0.36
0.66
1.01
1.37
1.72
2.06
2.40
2.79
3.24
3.80
4.42
5.06
5.66
6.20
6.68
7.15
7.68
8.31
9.14
10.09
11.04
11.88
12.56
13.14
13.76
14.65
15.96
17.91
20.32
22.90
25.38
27.58
29.57
31.68
34.32
37.81
42.54
48.15
54.10
59.83
64.97
69.58
74.14
79.34
85.71
93.76
103.00
112.62
121.73
129.77
136.75
143.30
150.75
157.77
166.64
177.95
191.79
206.97
220.57
228.25
225.36
208.53
176.87
132.76
80.05
23.07
-34.94
-92.44
-149.16
-205.23
-260.37
-313.74
-363.87
-409.83
-450.91
-486.50
-515.74
-537.23
-549.22
-549.96
-538.37
-514.21
-478.67
-433.88
-382.45
-327.02
-269.84
-212.63
-156.66
-102.95
-52.37
-5.90
35.58
71.43
101.35
125.50
144.38
158.69
169.15
176.37
180.75
182.57
182.07
179.51
175.23
169.65
163.18
156.15
148.81
141.30
133.69
126.02
118.33
110.69
103.16
95.80
88.68
81.83
75.25
68.95
62.95
57.25
51.86
46.78
42.03
37.59
33.45
29.61
26.07
22.81
19.83
17.11
14.67
12.48
10.54
8.83
7.35
6.07
4.97
4.05
3.27
2.62
2.09
1.65
1.30
1.01
0.79
0.61
0.48
0.37
0.29
0.24
0.20
0.18
0.17
0.17
0.18
0.20
0.22
0.26
0.29
0.33
0.37
0.42
0.46
0.51
0.56
0.61
0.66
0.72
0.78
0.84
0.92
1.00
1.08
1.18
1.29
1.42
1.55
1.71
1.88
2.07
2.28
2.51
2.77
3.06
3.37
3.72
4.10
4.51
4.96
5.44
5.96
6.52
7.12
7.79
8.51
9.27
10.06
10.84
11.61
12.37
13.15
14.01
14.97
16.07
17.28
18.56
19.81
20.97
21.95
22.69
23.14
23.24
22.89
21.95
20.31
17.85
14.56
10.47
5.85
0.99
-3.76
-8.15
-12.06
-15.53
-18.65
-21.51
-24.09
-26.20
-27.58
-28.01
-27.48
-26.30
-25.00
-24.15
-24.16
-25.02
-26.36
-27.48
-27.77
-26.97
-25.34
-23.61
-22.65
-23.06
-24.88
-27.48
-29.91
-31.33
-31.36
-30.31
-28.99
-28.34
-29.23
-32.31
-37.87
-45.61
-54.13
-60.77
-62.03
-54.86
-38.11
-13.59
14.22
39.73
58.35
68.10
69.90
66.53
60.93
54.97
49.20
43.45
37.66
32.30
28.27
26.25
26.26
27.59
29.18
29.99
29.54
28.06
26.12
24.38
23.19
22.42
21.48
19.61
16.28
11.39
5.38
-1.05
-7.26
-12.96
-18.27
-23.50
-28.90
-34.47
-39.98
-45.24
-50.41
-55.95
-62.50
-70.37
-79.28
-88.05
-94.85
-97.61
-94.67
-85.37
-70.18
-50.62
-28.78
-6.82
13.49
30.94
44.95
55.42
62.54
66.73
68.49
68.35
66.83
64.36
61.35
58.13
55.00
52.17
49.72
47.66
45.99
44.77
44.12
44.12
44.65
45.36
45.64
44.93
42.85
39.41
34.90
29.77
24.44
19.08
13.64
7.87
1.43
-5.95
-14.47
-24.06
-34.43
-45.02
-55.19
-64.43
-72.50
-79.63
-86.45
-93.81
-102.50
-112.90
-124.67
-136.71
-147.25
-154.25
-155.92
-151.12
-139.77
-122.82
-102.02
-79.50
-57.16
-36.27
-17.28
0.01
16.18
31.72
46.81
61.23
74.50
86.15
95.88
103.61
109.35
113.08
114.78
114.49
112.53
109.47
106.08
103.03
100.60
98.64
96.58
93.77
89.70
84.23
77.65
70.48
63.23
56.21
49.42
42.59
35.39
27.55
19.05
10.05
0.86
-8.16
-16.66
-24.36
-31.13
-37.04
-42.46
-48.06
-54.54
-62.36
-71.35
-80.52
-88.17
-92.32
-91.30
-84.30
-71.65
-54.72
-35.54
-16.19
1.63
16.83
28.96
37.96
44.07
47.57
48.79
48.10
45.90
42.69
39.02
35.43
32.34
29.97
28.32
27.24
26.54
26.11
25.94
26.04
26.35
26.67
26.69
26.06
24.59
22.27
19.25
15.72
11.79
7.45
2.53
-3.10
-9.43
-16.29
-23.38
-30.44
-37.40
-44.45
-52.01
-60.42
-69.68
-79.07
-87.18
-92.15
-92.29
-86.56
-75.05
-58.92
-40.05
-20.46
-1.82
14.82
28.90
40.29
49.05
55.29
59.21
61.14
61.40
60.35
58.28
55.42
51.97
48.14
44.17
40.25
36.58
33.32
30.60
28.50
26.95
25.79
24.72
23.39
21.60
19.28
16.45
13.11
9.07
4.09
-1.95
-8.89
-16.19
-23.18
-29.40
-34.88
-40.10
-45.85
-52.73
-60.96
-70.35
-80.29
-89.94
-98.22
-103.81
-105.28
-101.45
-91.75
-76.53
-57.05
-35.14
-12.73
8.53
27.48
43.37
55.85
64.81
70.41
73.03
73.24
71.64
68.75
65.00
60.71
56.26
52.07
48.63
46.30
45.17
44.96
45.13
45.09
44.39
42.92
40.87
38.57
36.28
34.08
31.81
29.25
26.26
22.81
18.97
14.83
10.31
5.18
-0.85
-7.99
-16.19
-25.15
-34.36
-43.33
-51.72
-59.27
-65.69
-70.43
-72.72
-71.70
-66.84
-58.13
-46.32
-32.61
-18.40
-4.91
6.97
16.71
24.10
29.13
32.09
33.37
33.43
32.65
31.18
29.02
26.07
22.43
18.33
14.14
10.20
6.80
4.11
2.20
1.07
0.55
0.27
-0.41
-2.12
-5.27
-9.83
-15.27
-20.81
-25.81
-30.08
-33.98
-38.32
-43.99
-51.53
-60.90
-71.38
-81.65
-90.14
-95.25
-95.76
-91.06
-81.26
-67.18
-50.23
-32.10
-14.44
1.39
14.57
24.84
32.43
37.83
41.59
44.05
45.36
45.46
44.33
42.04
38.85
35.03
30.95
26.88
23.09
19.86
17.43
15.88
14.97
14.11
12.59
9.93
6.04
1.28
-3.82
-8.95
-14.15
-19.75
-26.06
-33.18
-40.95
-49.23
-57.97
-67.28
-77.02
-86.46
-94.12
-98.06
-96.54
-88.80
-75.44
-58.24
-39.67
-21.99
-6.74
5.51
15.00
22.32
28.01
32.33
35.34
37.04
37.53
37.04
35.87
34.22
32.19
29.87
27.43
25.27
23.88
23.64
24.60
26.28
27.82
28.30
27.06
23.93
19.28
13.83
8.22
2.69
-3.02
-9.56
-17.64
-27.54
-38.94
-50.81
-61.66
-69.87
-74.02
-73.13
-66.91
-55.76
-40.72
-23.31
-5.22
11.94
26.96
39.08
48.05
54.09
57.63
59.21
59.38
58.53
56.88
54.49
51.39
47.65
43.48
39.24
35.35
32.09
29.58
27.64
25.87
23.77
20.85
16.89
11.90
6.17
0.09
-5.95
-11.79
-17.50
-23.46
-30.30
-38.57
-48.58
-59.93
-71.48
-81.42
-87.74
-88.77
-83.67
-72.71
-57.05
-38.46
-18.86
0.04
16.89
30.85
41.56
49.06
53.73
56.17
57.05
56.98
56.42
55.52
54.22
52.27
49.55
46.15
42.49
39.15
36.57
34.82
33.50
31.99
29.67
26.25
21.79
16.64
11.19
5.74
0.34
-5.14
-11.00
-17.75
-25.88
-35.74
-47.21
-59.44
-70.81
-79.28
-83.01
-80.89
-72.90
-60.01
-43.80
-25.93
-7.85
9.26
24.51
37.13
46.59
52.65
55.51
55.77
54.26
51.79
48.97
46.15
43.41
40.71
38.03
35.44
33.12
31.31
30.15
29.49
28.90
27.75
25.40
21.47
15.98
9.35
2.25
-4.72
-11.24
-17.44
-23.86
-31.29
-40.43
-51.57
-64.31
-77.38
-88.85
-96.49
-98.40
-93.58
-82.14
-65.34
-45.18
-23.87
-3.33
15.04
30.52
42.92
52.36
59.13
63.60
66.02
66.64
65.69
63.47
60.41
57.01
53.73
50.87
48.49
46.45
44.55
42.70
40.88
39.19
37.73
36.41
34.97
32.95
29.86
25.35
19.37
12.20
4.47
-3.24
-10.51
-17.31
-23.98
-31.03
-38.95
-48.07
-58.52
-70.10
-82.24
-93.87
-103.48
-109.34
-109.92
-104.31
-92.55
-75.63
-55.26
-33.44
-12.08
7.34
23.92
37.29
47.56
55.09
60.29
63.52
65.05
65.18
64.30
62.90
61.45
60.22
59.20
58.25
57.21
56.02
54.87
53.96
53.44
53.19
52.90
52.09
50.40
47.65
43.90
39.42
34.52
29.48
24.40
19.23
13.80
7.87
1.33
-5.78
-13.23
-20.66
-27.73
-34.32
-40.48
-46.57
-53.06
-60.41
-68.86
-78.24
-87.92
-96.71
-103.19
-105.88
-103.67
-96.08
-83.45
-66.81
-47.75
-28.05
-9.30
7.35
21.22
32.12
40.22
45.83
49.26
50.88
51.06
50.17
48.61
46.74
44.78
42.88
41.14
39.69
38.65
38.10
37.98
38.05
37.92
37.23
35.77
33.49
30.50
27.01
23.18
19.05
14.54
9.53
3.98
-2.02
-8.20
-14.25
-20.00
-25.52
-31.02
-36.87
-43.31
-50.42
-58.07
-65.95
-73.44
-79.67
-83.49
-83.66
-79.22
-69.87
-56.30
-40.02
-22.96
-6.90
7.05
18.55
27.80
35.14
40.76
44.61
46.56
46.66
45.27
42.94
40.30
37.69
35.20
32.77
30.36
28.18
26.56
25.77
25.86
26.49
27.14
27.29
26.61
25.00
22.55
19.34
15.26
10.22
4.20
-2.59
-9.71
-16.59
-22.82
-28.31
-33.33
-38.39
-44.08
-50.85
-58.91
-68.06
-77.58
-86.32
-92.77
-95.49
-93.46
-86.40
-74.92
-60.24
-43.88
-27.27
-11.46
2.77
14.97
24.87
32.37
37.66
41.11
43.26
44.54
45.19
45.27
44.68
43.36
41.41
39.09
36.79
34.82
33.40
32.55
32.09
31.75
31.15
30.04
28.31
26.03
23.45
20.78
18.09
15.17
11.63
7.00
1.03
-6.20
-14.28
-22.65
-30.81
-38.59
-46.18
-53.99
-62.34
-71.18
-79.88
-87.24
-91.82
-92.34
-88.04
-78.93
-65.83
-50.17
-33.54
-17.40
-2.76
9.89
20.40
28.83
35.21
39.55
41.90
42.47
41.69
40.11
38.16
36.03
33.65
30.88
27.77
24.59
21.78
19.80
18.79
18.60
18.78
18.76
18.08
16.44
13.72
9.98
5.43
0.36
-4.87
-9.98
-14.92
-19.89
-25.36
-31.88
-39.82
-49.21
-59.49
-69.44
-77.30
-81.13
-79.37
-71.37
-57.70
-39.99
-20.51
-1.52
15.28
29.00
39.46
46.85
51.44
53.47
53.16
50.85
47.08
42.55
37.96
33.77
30.11
26.80
23.45
19.77
15.77
11.81
8.45
6.10
4.83
4.20
3.55
2.26
0.09
-2.82
-6.04
-9.22
-12.35
-15.80
-20.20
-26.09
-33.71
-42.86
-53.04
-63.58
-73.78
-82.86
-89.87
-93.70
-93.25
-87.77
-77.20
-62.27
-44.41
-25.41
-7.01
9.41
22.95
33.20
40.14
44.03
45.32
44.56
42.37
39.39
36.17
33.17
30.58
28.38
26.41
24.49
22.54
20.71
19.29
18.51
18.33
18.38
18.02
16.59
13.65
9.13
3.38
-3.06
-9.74
-16.44
-23.32
-30.78
-39.27
-48.97
-59.64
-70.46
-80.09
-86.88
-89.20
-85.80
-76.20
-60.93
-41.45
-19.90
1.44
20.66
36.45
48.26
56.05
60.13
61.02
59.44
56.25
52.38
48.60
45.33
42.61
40.19
37.70
34.95
32.06
29.35
27.20
25.75
24.76
23.64
21.76
18.72
14.62
9.99
5.44
1.19
-3.04
-8.08
-14.89
-23.99
-35.15
-47.30
-58.79
-67.75
-72.44
-71.61
-64.70
-52.07
-34.93
-15.23
4.81
23.17
38.45
50.00
57.88
62.53
64.46
64.18
62.17
58.93
55.01
50.92
46.99
43.28
39.70
36.08
32.45
29.04
26.22
24.29
23.23
22.65
21.92
20.40
17.78
14.07
9.59
4.77
-0.12
-5.05
-10.24
-16.10
-23.02
-31.07
-39.69
-47.57
-52.72
-52.88
-46.17
-31.89
-10.93
14.25
40.17
63.30
81.00
92.13
97.11
97.17
93.69
87.05
76.03
57.99
29.44
-13.01
-71.71
-146.88
-235.63
-331.19
-423.18
-499.25
-547.99
-562.40
-542.10
-493.39
-426.74
-353.08
-280.38
-212.31
-149.05
-89.44
-32.94
19.66
67.21
109.23
146.79
182.29
218.38
257.20
300.20
348.25
402.09
461.74
525.25
587.86
642.10
679.71
694.45
684.60
653.68
609.02
558.83
509.52
464.38
423.95
387.47
354.08
323.31
294.79
267.76
240.98
213.20
183.61
152.20
119.47
86.23
53.01
19.90
-13.26
-46.77
-80.77
-115.23
-150.03
-185.13
-220.65
-256.85
-293.83
-331.40
-368.91
-405.19
-438.42
-466.06
-485.04
-492.45
-486.62
-467.81
-438.35
-401.62
-360.77
-317.80
-273.68
-229.20
-185.82
-145.89
-111.74
-84.48
-63.23
-45.37
-27.63
-7.47
16.13
42.46
69.37
93.97
113.37
125.46
129.95
128.81
125.40
122.74
121.77
120.72
116.16
105.02
86.29
61.96
35.96
12.11
-7.80
-24.52
-40.24
-56.62
-73.41
-88.78
-99.81
-104.02
-100.94
-92.66
-83.02
-75.69
-72.21
-71.30
-70.96
-68.36
-61.25
-49.04
-33.55
-18.17
-6.02
1.77
6.38
7.60
5.97
2.88
-0.04
-2.31
-5.00
-9.85
-18.42
-31.89
-55.50
-92.28
-140.03
-191.15
-236.15
-267.77
-283.33
-285.18
-279.53
-279.55
-294.69
-325.69
-365.33
-404.29
-436.64
-461.20
-479.98
-459.12
-381.72
-257.68
-118.65
6.06
103.38
172.75
218.34
245.11
257.54
253.46
231.39
194.63
150.55
107.86
74.16
55.20
54.29
71.71
99.97
130.78
159.64
185.38
208.25
229.42
250.34
272.03
294.19
312.25
321.63
320.54
310.44
294.46
275.31
254.18
231.04
205.32
175.71
142.32
107.13
72.96
41.98
14.69
-9.77
-32.57
-54.11
-74.02
-90.98
-103.23
-109.40
-109.26
-103.95
-95.92
-88.28
-83.76
-83.36
-85.71
-87.42
-84.85
-76.26
-63.20
-50.40
-43.70
-47.18
-61.01
-81.03
-100.52
-113.07
-114.93
-105.98
-88.81
-66.96
-43.35
-19.68
3.13
24.04
41.45
53.48
58.94
58.26
53.58
48.09
44.75
45.05
48.55
53.33
57.12
58.45
57.19
54.28
51.12
48.80
47.71
47.44
47.11
45.79
42.92
38.42
32.73
26.49
20.29
14.34
8.49
2.34
-4.41
-11.85
-19.79
-27.97
-36.33
-45.11
-54.82
-65.78
-77.65
-89.19
-98.30
-102.52
-99.88
-89.52
-72.21
-50.07
-26.02
-2.84
17.46
34.07
47.16
57.45
65.66
72.15
76.91
79.78
80.66
79.77
77.60
74.82
72.09
69.92
68.66
68.36
68.83
69.67
70.35
70.42
69.67
68.16
66.20
63.99
61.48
58.27
53.85
47.84
40.28
31.54
22.11
12.42
2.64
-7.24
-17.27
-27.45
-37.66
-47.84
-58.00
-68.04
-77.51
-85.24
-89.51
-88.48
-80.93
-66.87
-47.64
-25.58
-3.31
17.01
34.16
47.75
57.86
64.68
68.21
68.30
64.93
58.54
50.22
41.69
34.70
30.46
29.15
29.93
31.52
33.02
34.36
36.23
39.47
44.27
49.86
54.76
57.50
57.35
54.59
50.21
45.24
40.25
35.22
29.82
23.81
17.16
10.06
2.59
-5.51
-14.84
-25.94
-38.88
-52.70
-65.42
-74.50
-77.55
-73.22
-61.72
-44.75
-24.95
-5.09
12.68
27.27
38.68
47.58
54.73
60.50
64.70
66.75
66.14
62.90
57.75
51.82
46.14
41.24
36.99
33.02
29.12
25.51
22.74
21.25
20.99
21.31
21.19
19.79
16.74
12.20
6.63
0.56
-5.68
-11.85
-17.80
-23.32
-28.25
-32.66
-36.90
-41.62
-47.53
-54.99
-63.68
-72.39
-79.27
-82.30
-79.99
-71.79
-58.21
-40.48
-20.19
1.06
21.71
40.17
54.88
64.54
68.63
67.65
63.11
57.04
51.24
46.69
43.30
40.20
36.37
31.12
24.44
16.65
8.13
-1.02
-10.94
-21.58
-32.22
-41.26
-46.61
-46.49
-40.37
-29.46
-16.41
-4.53
3.07
4.00
-3.22
-18.99
-42.49
-71.34
-101.54
-128.10
-146.31
-153.28
-149.10
-136.96
-121.82
-108.39
-99.22
-93.93
-89.97
-84.44
-75.76
-64.43
-52.28
-40.96
-30.74
-20.33
-7.99
6.92
23.06
37.50
47.16
50.32
47.39
40.47
32.17
24.46
18.07
12.83
8.42
5.02
3.33
4.12
7.45
12.19
16.23
17.28
13.94
6.38
-3.81
-14.51
-24.12
-32.32
-39.83
-47.45
-55.09
-61.29
-63.73
-60.34
-50.33
-34.64
-15.59
4.07
22.15
37.54
50.09
60.19
68.22
74.30
78.28
80.03
79.48
76.56
71.01
62.30
49.84
33.49
13.98
-6.95
-26.96
-43.80
-56.12
-63.80
-67.77
-69.51
-70.45
-71.53
-73.23
-75.76
-79.25
-83.79
-89.17
-94.49
-98.01
-97.55
-91.13
-78.05
-59.47
-38.23
-17.83
-1.02
11.35
20.53
28.98
38.87
50.77
63.32
74.06
80.91
83.27
82.26
79.92
77.99
76.99
76.18
74.32
70.66
65.46
59.90
55.31
52.37
50.74
49.26
46.46
41.15
32.64
20.77
5.92
-10.96
-28.24
-43.75
-55.15
-60.78
-60.35
-55.18
-47.91
-41.64
-39.03
-41.68
-49.87
-62.71
-78.15
-93.28
-104.68
-109.15
-104.55
-90.46
-68.38
-41.17
-12.10
15.91
40.70
60.84
75.35
83.75
86.10
83.24
76.76
68.66
60.92
55.04
51.77
51.01
51.92
53.18
53.36
51.36
46.85
40.27
32.53
24.57
17.01
10.22
4.39
-0.15
-3.15
-4.78
-5.84
-7.73
-11.92
-19.30
-29.82
-42.64
-56.60
-70.54
-83.38
-93.84
-100.21
-100.58
-93.57
-79.05
-58.58
-35.00
-11.44
9.68
27.24
41.20
51.97
59.74
64.33
65.54
63.64
59.71
55.44
52.51
51.89
53.54
56.44
59.10
60.19
58.95
55.40
50.23
44.42
38.90
34.20
30.39
27.19
24.25
21.39
18.71
16.41
14.55
12.75
10.16
5.69
-1.53
-11.70
-24.28
-38.09
-51.79
-64.27
-74.87
-83.20
-88.90
-91.25
-89.28
-82.08
-69.41
-52.08
-31.84
-10.87
9.01
26.75
42.09
54.99
65.18
71.91
74.42
72.51
67.13
60.24
54.23
50.95
50.95
53.37
56.46
58.40
58.02
55.22
50.72
45.63
40.93
37.26
34.82
33.56
33.17
33.08
32.36
29.89
24.75
16.68
6.39
-4.69
-14.89
-23.03
-28.90
-33.22
-37.30
-42.53
-49.90
-59.71
-71.38
-83.47
-93.75
-99.74
-99.34
-91.57
-77.02
-57.70
-36.44
-15.92
1.99
16.57
27.95
36.65
43.06
47.32
49.37
49.22
47.14
43.68
39.59
35.53
32.03
29.35
27.48
26.29
25.55
25.06
24.62
24.12
23.44
22.44
20.94
18.72
15.70
11.91
7.49
2.64
-2.54
-8.06
-14.01
-20.48
-27.46
-34.94
-43.03
-51.92
-61.84
-72.59
-83.27
-92.14
-97.02
-96.00
-88.23
-74.35
-56.29
-36.55
-17.28
0.19
15.45
28.60
39.78
48.88
55.68
60.10
62.31
62.76
61.96
60.16
57.43
53.82
49.63
45.54
42.45
41.04
41.50
43.26
45.16
45.93
44.72
41.45
36.75
31.64
27.08
23.53
20.75
18.06
14.58
9.64
2.99
-5.09
-13.86
-22.44
-30.00
-36.07
-40.70
-44.41
-48.03
-52.40
-58.16
-65.59
-74.59
-84.68
-94.94
-104.06
-110.38
-112.24
-108.37
-98.35
-82.74
-63.04
-41.30
-19.58
0.42
17.61
31.52
42.14
49.74
54.76
57.64
58.80
58.61
57.37
55.44
53.10
50.58
47.99
45.36
42.73
40.13
37.79
36.05
35.25
35.56
36.84
38.58
39.96
40.13
38.50
34.98
30.00
24.27
18.51
13.09
7.95
2.75
-2.87
-9.08
-15.76
-22.67
-29.52
-36.13
-42.49
-48.74
-55.14
-62.10
-69.93
-78.57
-87.37
-94.89
-99.20
-98.43
-91.53
-78.65
-61.23
-41.49
-21.68
-3.52
12.06
24.83
34.88
42.31
47.13
49.46
49.64
48.27
46.05
43.56
41.15
38.89
36.76
34.74
33.01
31.80
31.36
31.81
33.13
34.97
36.82
38.05
38.15
36.85
34.37
31.32
28.46
26.31
24.90
23.66
21.85
18.84
14.52
9.39
4.30
0.12
-2.73
-4.40
-5.53
-6.95
-9.28
-12.66
-16.46
-19.50
-20.17
-16.74
-7.73
7.65
29.22
55.59
84.35
112.67
138.16
159.57
176.90
190.86
201.99
209.83
212.79
208.42
193.98
167.17
127.15
75.68
18.06
-37.04
-79.57
-101.79
-102.14
-86.92
-69.00
-63.41
-81.94
-129.25
-201.66
-288.93
-377.76
-455.29
-511.68
-541.52
-543.84
-521.47
-479.74
-425.04
-363.59
-300.81
-240.92
-186.71
-139.37
-98.58
-63.20
-32.60
-7.88
8.20
12.72
5.17
-10.74
-27.68
-37.29
-33.90
-16.96
9.20
37.93
63.62
84.10
100.56
115.84
132.20
149.87
167.23
181.84
191.67
195.74
193.97
186.74
174.64
158.68
140.55
122.64
107.64
97.66
93.51
94.40
98.23
102.41
104.56
103.10
97.43
87.95
75.77
62.54
49.97
39.34
31.12
24.62
18.32
10.42
-0.46
-14.76
-31.77
-49.87
-67.00
-81.10
-90.64
-94.82
-93.69
-88.00
-78.87
-67.41
-54.40
-40.24
-25.20
-9.71
5.49
19.43
31.14
40.06
46.12
49.59
50.80
49.97
47.17
42.53
36.39
29.41
22.38
16.11
11.07
7.41
4.95
3.22
1.67
-0.14
-2.47
-5.20
-7.92
-10.00
-10.79
-9.96
-7.77
-5.10
-3.30
-3.74
-7.32
-14.17
-23.76
-35.12
-47.32
-59.61
-71.30
-81.46
-88.69
-91.34
-88.03
-78.25
-62.73
-43.25
-21.95
-0.70
19.16
36.84
51.93
64.35
74.22
81.84
87.40
90.92
92.11
90.48
85.85
78.68
70.17
61.90
55.10
50.24
47.10
45.06
43.39
41.61
39.63
37.58
35.72
33.77
30.95
26.49
19.73
10.07
-3.35
-21.42
-44.59
-71.86
-100.83
-127.37
-145.72
-150.23
-137.62
-108.26
-65.11
-11.39
51.62
123.03
201.06
281.55
357.01
417.58
454.29
462.90
446.05
412.23
369.91
324.33
276.88
225.70
167.45
99.17
20.08
-69.98
-158.95
-232.17
-281.97
-308.59
-313.63
-295.98
-253.54
-187.96
-107.68
-26.79
37.46
72.76
77.82
61.43
38.44
21.79
18.70
30.00
52.58
80.68
109.69
137.63
164.17
188.62
208.57
220.33
220.57
211.31
194.68
173.75
151.78
130.71
110.16
87.47
59.10
22.49
-22.53
-74.41
-129.94
-185.41
-238.04
-286.78
-332.26
-375.96
-419.32
-463.24
-508.16
-553.39
-596.50
-633.00
-656.61
-660.82
-641.15
-597.39
-534.32
-460.39
-384.75
-314.77
-254.50
-205.00
-165.66
-135.63
-114.28
-100.87
-93.38
-88.70
-83.44
-75.32
-63.88
-50.41
-37.31
-27.06
-21.18
-18.52
-16.71
-13.60
-8.59
-2.80
1.70
2.86
-0.54
-8.51
-16.96
-20.95
-16.99
-5.02
12.13
30.51
46.67
58.61
66.04
74.70
91.28
120.07
160.29
207.21
255.20
300.13
340.20
375.89
414.94
465.62
532.74
615.14
708.07
807.09
909.30
1012.47
1076.01
1063.61
959.06
780.06
566.80
359.18
183.13
48.46
-46.76
-111.80
-152.73
-174.30
-180.37
-178.45
-176.59
-180.68
-193.62
-214.85
-241.86
-267.73
-287.08
-298.98
-308.88
-326.06
-353.48
-392.23
-438.77
-485.47
-519.83
-530.27
-511.35
-467.23
-410.39
-356.71
-319.94
-305.66
-309.71
-319.34
-319.95
-301.73
-263.86
-213.84
-163.62
-125.10
-105.47
-105.50
-119.84
-139.96
-157.43
-166.74
-166.05
-156.49
-140.98
-122.19
-101.83
-81.11
-61.50
-45.38
-35.63
-34.49
-42.25
-56.90
-74.94
-92.91
-109.04
-123.73
-139.09
-157.31
-179.14
-203.06
-225.60
-242.47
-250.04
-246.50
-232.25
-209.30
-180.13
-146.55
-109.13
-67.26
-20.05
32.85
90.48
150.64
210.52
267.63
320.64
369.70
416.02
461.00
505.42
548.91
590.32
628.19
661.72
691.21
718.02
744.23
772.33
804.85
843.84
889.76
940.15
988.94
1027.05
1044.74
1034.87
995.55
930.70
848.29
757.11
663.89
572.05
482.47
395.26
311.26
232.24
160.20
96.33
40.55
-8.00
-50.12
-86.02
-115.22
-136.97
-151.03
-158.16
-160.05
-158.97
-157.09
-156.05
-156.70
-159.23
-163.54
-169.47
-176.99
-186.03
-196.37
-207.55
-218.99
-230.28
-241.42
-252.86
-265.28
-279.21
-294.57
-310.63
-326.12
-339.73
-350.64
-358.79
-364.91
-370.45
-377.32
-387.42
-401.95
-420.28
-439.22
-453.13
-455.39
-441.03
-409.30
-365.07
-317.81
-278.46
-255.61
-252.69
-267.15
-292.13
-319.21
-341.00
-352.69
-352.14
-339.48
-316.37
-285.95
-252.58
-221.39
-197.04
-181.93
-174.97
-171.74
-166.33
-153.75
-132.25
-103.80
-73.00
-44.93
-23.15
-8.91
-1.45
1.00
0.20
-2.47
-6.16
-10.51
-15.56
-21.63
-29.26
-38.71
-49.79
-61.75
-73.53
-84.05
-92.27
-97.32
-98.27
-94.35
-84.91
-69.72
-49.28
-24.98
0.92
25.65
46.70
62.48
72.78
78.73
82.12
84.68
87.44
90.37
92.52
92.40
88.27
78.88
64.18
45.77
26.83
11.15
1.58
-1.32
0.18
1.64
-1.93
-14.54
-38.08
-71.97
-113.70
-159.72
-206.40
-250.75
-290.53
-324.02
-349.55
-365.44
-370.17
-363.00
-344.33
-315.63
-278.74
-234.92
-184.46
-127.12
-63.30
5.23
75.14
142.59
204.74
260.81
312.06
361.12
410.80
462.76
516.43
568.24
611.92
639.89
645.46
625.47
581.53
519.42
446.70
369.58
290.55
208.08
118.57
19.64
-86.88
-194.19
-292.16
-370.94
-424.60
-452.96
-460.97
-455.83
-443.70
-427.50
-407.16
-381.62
-351.14
-318.31
-287.16
-260.92
-240.08
-222.01
-202.34
-177.46
-146.42
-111.42
-76.84
-46.87
-23.46
-5.39
11.27
31.14
57.63
91.97
133.59
181.24
233.80
290.02
347.29
401.03
444.96
472.98
481.53
470.77
444.10
406.04
360.35
309.91
258.40
212.29
181.16
175.07
199.95
253.67
325.10
397.21
453.20
482.02
481.21
455.96
414.83
364.92
308.90
245.27
171.53
88.11
0.81
-79.69
-141.35
-175.09
-177.94
-152.94
-106.91
-47.50
18.57
85.11
145.64
193.04
220.95
226.22
210.72
180.97
145.50
111.47
82.07
56.41
31.13
2.66
-30.48
-66.43
-100.82
-128.36
-145.00
-150.04
-146.57
-140.39
-137.38
-141.20
-151.93
-166.61
-180.94
-191.13
-194.65
-190.17
-176.81
-153.80
-120.81
-78.34
-27.69
29.70
92.80
160.76
231.71
301.59
364.04
411.75
439.08
444.38
430.68
404.16
371.37
337.01
302.91
268.93
234.77
200.97
168.83
139.10
110.71
80.49
44.18
-1.69
-58.24
-123.73
-194.24
-265.27
-333.36
-397.06
-456.61
-513.42
-569.36
-626.25
-684.81
-744.09
-800.73
-848.81
-880.74
-889.16
-870.05
-824.72
-760.19
-686.47
-613.34
-547.46
-491.54
-445.15
-406.19
-373.11
-345.58
-324.25
-308.47
-296.12
-284.07
-269.48
-250.69
-226.05
-195.66
-161.12
-126.25
-92.98
-61.47
-30.38
1.66
35.81
75.28
121.59
173.81
226.09
275.53
321.40
364.86
406.28
445.37
485.82
529.73
577.16
622.21
665.04
708.67
756.87
807.95
855.28
895.18
922.80
933.88
920.30
884.49
834.39
781.14
732.57
658.08
545.67
405.33
302.99
252.39
245.33
250.30
246.38
218.92
162.25
85.20
-0.35
-85.66
-174.31
-267.69
-368.15
-465.59
-554.85
-628.37
-672.83
-679.74
-650.24
-600.18
-545.46
-498.88
-464.88
-434.49
-398.58
-347.37
-280.23
-206.17
-141.01
-93.74
-64.91
-48.01
-37.33
-31.28
-30.20
-37.64
-56.98
-90.45
-135.95
-189.44
-247.72
-300.61
-342.75
-370.78
-386.81
-396.16
-404.36
-412.88
-418.24
-413.14
-390.14
-354.34
-305.89
-249.63
-193.25
-143.65
-104.16
-73.84
-48.71
-24.00
2.63
30.45
56.97
80.47
101.37
121.70
144.01
170.14
200.95
235.26
271.68
307.32
338.38
360.69
370.33
364.80
343.97
310.53
268.87
224.98
184.26
151.27
129.81
122.31
129.21
148.07
173.41
197.96
215.03
220.00
211.69
192.28
166.22
139.10
116.05
100.74
94.95
98.58
109.99
126.90
147.91
173.12
203.80
240.80
282.84
325.96
364.27
392.22
406.40
406.34
393.46
370.00
337.72
297.63
250.95
199.44
145.66
92.51
41.52
-7.75
-57.40
-109.36
-163.01
-214.19
-256.16
-282.68
-291.31
-285.23
-272.81
-264.62
-269.97
-294.17
-337.11
-393.42
-453.62
-505.97
-538.47
-541.46
-510.24
-447.30
-362.70
-272.27
-193.69
-141.78
-124.91
-143.23
-189.06
-249.51
-310.10
-358.23
-385.99
-391.21
-377.04
-349.93
-317.21
-285.12
-257.60
-236.09
-220.23
-208.52
-198.90
-188.83
-175.03
-153.80
-121.87
-77.85
-23.57
35.31
90.34
132.73
156.67
162.11
155.47
147.82
150.84
172.15
212.06
263.43
314.52
353.82
374.68
377.76
370.14
361.38
358.37
361.49
363.91
354.55
323.20
265.69
186.56
98.13
16.18
-45.18
-77.64
-80.02
-57.27
-18.08
27.85
71.96
108.62
135.89
155.43
170.69
184.27
195.68
200.99
194.72
173.60
139.79
101.52
70.19
55.32
59.90
78.99
102.11
118.47
121.81
112.59
96.64
81.19
70.68
64.85
59.67
50.27
34.08
12.21
-11.33
-31.96
-46.84
-56.07
-62.19
-68.51
-77.59
-90.47
-106.98
-126.43
-148.24
-171.85
-196.55
-221.03
-243.51
-262.06
-275.16
-281.94
-282.01
-275.27
-261.74
-241.81
-216.60
-188.03
-158.42
-129.77
-103.03
-78.06
-54.12
-30.82
-8.63
11.33
27.98
41.24
51.88
60.79
68.16
73.24
75.00
73.20
69.03
64.99
64.03
68.54
79.47
96.27
117.07
139.18
159.55
175.27
184.05
184.93
178.73
167.87
155.43
143.48
131.56
116.20
92.34
55.58
4.90
-55.88
-118.36
-171.85
-206.62
-216.15
-198.66
-156.96
-98.07
-32.42
26.81
65.74
73.06
44.11
-15.78
-92.12
-166.18
-222.86
-256.85
-273.75
-285.25
-301.56
-325.96
-353.84
-376.96
-389.27
-390.06
-382.32
-368.71
-347.95
-314.80
-264.46
-197.92
-124.25
-57.99
-13.04
2.82
-9.80
-43.96
-90.45
-141.45
-191.53
-237.08
-274.72
-300.95
-313.07
-310.36
-294.79
-269.85
-238.84
-203.18
-162.32
-114.97
-60.65
-0.96
60.85
121.13
177.29
228.48
275.92
322.07
369.77
421.18
476.76
534.30
588.45
631.43
654.90
652.95
624.83
576.09
517.40
460.91
415.71
384.43
362.88
342.79
316.14
278.88
232.14
180.67
130.00
84.15
44.90
12.65
-12.34
-29.27
-36.89
-34.34
-21.29
2.28
36.70
82.54
139.78
206.39
277.71
347.12
407.89
455.17
487.03
504.03
508.11
501.38
485.78
463.34
436.75
409.21
383.86
362.67
345.66
331.10
316.36
299.32
279.20
256.74
233.52
210.99
189.69
169.10
147.93
124.80
98.91
70.34
40.00
9.25
-20.68
-49.04
-75.72
-101.05
-125.41
-148.83
-170.82
-190.45
-206.61
-218.43
-225.54
-228.13
-226.78
-222.14
-214.63
-204.28
-190.90
-174.30
-154.75
-133.12
-110.85
-89.60
-70.79
-55.16
-42.61
-32.52
-24.20
-17.50
-13.10
-12.48
-17.30
-28.76
-46.95
-70.76
-98.23
-127.31
-156.64
-186.05
-216.43
-249.52
-287.34
-331.58
-382.75
-439.28
-496.94
-549.06
-587.91
-607.03
-603.50
-579.19
-540.37
-495.60
-452.82
-417.06
-389.47
-368.10
-349.69
-331.63
-312.97
-294.38
-277.11
-261.84
-247.89
-233.53
-216.97
-197.66
-177.07
-158.21
-144.41
-137.80
-138.36
-144.10
-152.08
-159.61
-164.97
-167.39
-166.46
-161.68
-152.40
-138.28
-119.78
-98.47
-76.73
-57.08
-41.37
-30.44
-23.96
-20.95
-20.26
-21.11
-23.37
-27.49
-34.28
-44.57
-58.83
-77.13
-99.20
-124.45
-151.99
-180.31
-207.09
-229.30
-243.82
-248.38
-242.31
-226.80
-204.38
-177.96
-149.80
-121.12
-92.31
-63.47
-34.99
-7.72
17.17
38.71
56.26
69.61
78.83
84.06
85.50
83.51
78.75
72.22
65.12
58.66
53.78
50.95
50.25
51.54
54.73
59.86
67.04
76.32
87.24
98.84
109.76
118.70
125.08
129.61
134.25
141.85
154.81
173.94
197.79
223.18
246.23
264.09
276.23
284.82
294.25
309.87
336.51
376.98
430.95
494.17
558.75
614.60
652.36
666.75
658.15
631.95
596.14
558.17
522.43
489.73
458.20
425.21
389.77
352.58
315.89
282.74
256.64
240.32
234.02
234.38
235.29
231.79
221.02
203.23
180.48
156.41
133.99
114.11
95.32
75.45
55.89
39.26
27.50
19.16
11.67
1.74
-14.14
-39.75
-78.45
-128.74
-187.66
-252.47
-323.08
-398.18
-472.56
-534.94
-575.15
-605.61
-637.08
-675.54
-711.46
-734.86
-732.93
-695.22
-618.39
-508.88
-381.05
-245.91
-109.90
27.26
155.57
260.32
327.39
352.01
350.21
336.38
325.07
325.54
338.71
352.49
355.94
343.28
317.38
287.72
263.44
251.39
250.91
254.68
252.50
239.90
219.23
197.09
179.45
167.06
158.08
149.00
137.13
121.39
104.46
90.39
82.51
81.49
84.26
86.78
84.75
74.90
55.15
25.72
-11.69
-54.59
-100.86
-149.41
-199.64
-251.22
-303.91
-357.59
-412.45
-469.59
-530.85
-597.63
-669.29
-741.36
-805.84
-853.41
-876.94
-874.32
-849.18
-808.91
-761.07
-710.33
-657.52
-601.09
-539.62
-474.05
-407.89
-345.70
-290.98
-244.49
-204.18
-166.48
-128.17
-87.92
-46.98
-8.47
24.35
49.66
68.37
83.88
100.91
123.86
155.48
196.55
245.78
299.67
352.09
394.71
419.03
419.70
397.96
363.02
329.83
313.50
322.88
356.30
402.48
445.37
471.15
473.36
453.94
420.36
380.71
339.87
298.51
254.58
205.31
148.51
83.31
9.89
-70.15
-153.38
-234.18
-305.27
-359.23
-391.23
-400.57
-390.55
-366.65
-334.27
-297.24
-257.78
-217.26
-175.88
-134.31
-93.55
-54.54
-17.67
17.20
50.26
81.27
109.52
136.18
162.03
187.14
211.02
233.27
254.35
275.47
297.84
322.30
353.33
394.34
446.33
506.84
570.05
627.94
671.85
694.29
691.13
668.15
633.84
596.30
560.58
528.65
500.98
477.97
460.15
421.24
347.93
240.68
115.30
-7.75
-114.34
-199.01
-261.88
-302.93
-328.72
-340.59
-342.37
-339.91
-339.83
-346.74
-361.85
-381.46
-401.68
-419.89
-432.31
-440.83
-450.64
-468.42
-499.36
-545.45
-605.07
-673.54
-742.86
-784.93
-777.64
-715.00
-612.15
-495.87
-390.25
-308.22
-255.62
-222.57
-198.32
-177.99
-160.33
-145.46
-132.33
-119.42
-105.01
-88.09
-67.68
-43.51
-17.05
10.37
38.18
66.65
96.32
127.10
158.27
189.69
221.14
252.21
283.69
317.55
356.32
401.25
450.20
496.51
529.91
538.75
514.67
457.35
376.48
289.81
217.74
176.35
171.86
199.19
243.88
287.54
313.94
313.15
282.48
224.76
145.66
51.99
-48.52
-146.83
-232.26
-294.51
-326.71
-328.20
-305.10
-268.07
-227.91
-191.60
-160.66
-132.42
-102.96
-69.75
-32.66
6.85
47.26
88.33
131.37
178.78
232.96
295.02
363.56
434.15
499.82
552.37
584.72
592.99
577.78
543.30
495.43
439.58
379.30
316.17
250.60
182.56
112.03
39.09
-37.05
-118.41
-207.76
-307.22
-416.06
-529.39
-637.89
-729.53
-792.13
-818.29
-808.11
-768.74
-711.26
-645.50
-577.63
-509.67
-441.08
-369.72
-296.05
-223.62
-157.17
-99.99
-50.61
-4.74
42.04
92.19
147.55
205.79
261.25
307.84
341.83
366.03
386.68
410.68
443.44
490.76
552.66
621.89
685.20
726.63
735.23
705.54
638.58
521.96
364.11
192.01
40.92
-56.63
-101.82
-106.37
-84.74
-51.92
-22.16
-3.52
-0.52
-14.04
-41.61
-78.90
-118.14
-153.09
-181.20
-202.95
-217.87
-227.26
-234.73
-245.49
-265.32
-296.09
-336.40
-381.59
-424.34
-454.99
-467.16
-460.84
-442.00
-419.06
-396.66
-374.50
-348.97
-316.16
-274.54
-227.22
-180.58
-140.84
-111.24
-91.16
-78.63
-72.58
-73.25
-80.38
-92.08
-105.43
-118.06
-129.64
-141.86
-157.01
-176.37
-199.09
-222.96
-246.31
-269.00
-291.66
-313.77
-331.86
-339.53
-329.67
-297.76
-244.46
-175.46
-99.22
-23.71
46.51
111.08
173.02
236.65
305.77
382.03
463.83
545.99
620.17
676.19
704.76
701.17
667.65
613.37
551.04
491.94
441.62
398.50
356.32
308.67
252.35
188.35
120.53
53.65
-7.65
-58.95
-96.26
-117.20
-123.05
-119.41
-114.95
-117.42
-129.61
-147.58
-162.48
-165.30
-150.76
-118.90
-73.24
-17.88
44.02
109.47
173.39
227.61
262.48
270.59
250.30
207.08
151.20
93.11
39.12
-10.63
-61.17
-119.25
-189.06
-269.30
-352.64
-428.02
-484.68
-515.73
-520.22
-502.61
-470.09
-429.29
-384.09
-335.15
-281.77
-224.04
-163.61
-103.32
-45.73
8.16
58.91
107.77
156.69
206.96
258.74
310.54
359.10
399.59
426.85
437.43
431.51
415.15
396.80
383.51
378.08
378.23
378.41
372.94
358.26
333.42
301.06
262.65
217.73
165.83
109.72
57.53
21.37
12.60
36.44
92.01
168.39
248.17
313.89
354.26
367.51
360.29
342.81
305.64
246.13
168.01
81.97
0.88
-65.45
-112.25
-139.11
-148.42
-149.70
-148.64
-149.30
-153.79
-162.69
-175.39
-191.23
-207.29
-222.25
-238.61
-256.79
-277.03
-298.51
-319.22
-336.49
-347.67
-351.13
-347.30
-342.00
-340.36
-347.17
-365.23
-395.29
-436.91
-489.17
-550.22
-596.83
-608.56
-571.67
-487.29
-369.72
-238.86
-113.26
-5.96
77.52
138.80
180.97
208.92
226.26
235.21
237.11
234.02
229.09
226.41
229.94
240.19
256.67
277.96
302.10
326.51
347.40
360.14
361.01
348.92
321.48
281.08
232.83
182.35
133.67
88.27
45.75
5.43
-32.55
-68.14
-100.95
-131.59
-161.46
-191.93
-223.78
-257.30
-292.70
-330.03
-368.87
-406.60
-437.71
-454.37
-448.42
-414.35
-351.51
-264.19
-160.00
-47.56
65.21
170.83
261.86
330.93
371.73
380.93
359.35
311.45
243.74
162.83
74.42
-15.32
-98.05
-163.53
-201.47
-204.89
-173.35
-114.00
-40.12
31.81
87.86
120.62
129.89
121.17
103.37
85.67
76.12
79.49
94.83
116.94
138.49
151.96
152.38
139.58
118.87
100.30
95.14
110.32
147.52
203.10
268.56
333.16
387.32
420.86
428.20
419.43
403.62
383.31
359.89
332.98
301.84
266.47
227.95
188.42
149.42
109.68
67.54
22.81
-23.22
-67.86
-107.88
-140.74
-165.03
-181.24
-192.85
-204.39
-218.97
-237.84
-260.27
-284.25
-307.75
-329.29
-348.90
-368.69
-392.19
-421.52
-456.81
-496.59
-539.41
-584.94
-633.08
-683.11
-731.42
-772.54
-798.15
-799.87
-772.66
-717.17
-639.29
-546.40
-445.87
-343.72
-248.29
-168.52
-112.57
-84.90
-84.09
-102.65
-128.60
-151.58
-150.43
-118.18
-63.05
-3.09
46.31
80.20
97.73
108.50
119.09
132.49
147.45
163.54
181.55
203.02
229.07
259.03
291.27
322.68
350.91
373.07
388.04
396.65
401.29
404.37
407.10
410.00
412.23
413.35
412.95
412.48
415.26
425.07
443.35
467.03
488.57
497.38
484.18
444.47
380.75
301.71
218.71
141.57
75.71
21.46
-25.12
-70.05
-119.10
-175.69
-239.23
-304.48
-362.34
-402.10
-415.02
-397.40
-352.09
-287.57
-216.39
-152.57
-108.65
-92.40
-103.54
-134.20
-171.16
-201.04
-213.24
-203.63
-174.70
-133.18
-86.05
-36.48
14.44
65.46
112.45
152.60
185.65
214.59
243.09
273.23
306.19
339.48
368.79
388.12
396.98
397.41
391.39
378.48
358.28
336.39
321.34
320.77
333.47
354.32
373.64
382.00
374.10
332.72
255.93
155.52
71.55
11.96
-30.41
-73.31
-126.34
-192.45
-267.90
-341.13
-398.85
-429.94
-431.48
-402.97
-349.00
-278.49
-204.07
-138.14
-87.56
-54.39
-39.52
-42.70
-56.46
-71.36
-80.77
-84.16
-84.77
-85.72
-89.76
-99.39
-118.13
-146.34
-181.67
-219.35
-250.31
-261.32
-244.27
-200.74
-141.54
-80.52
-27.03
13.99
45.35
70.53
92.27
112.80
134.86
161.32
195.15
238.34
290.05
346.30
400.11
443.37
468.95
473.31
457.87
428.84
394.42
361.34
332.42
305.71
276.37
239.23
191.75
134.96
72.87
10.10
-50.04
-106.09
-158.83
-209.77
-260.24
-310.81
-361.33
-410.61
-456.13
-493.48
-517.08
-522.33
-508.30
-480.06
-448.77
-428.65
-431.76
-463.13
-518.04
-583.38
-642.38
-680.22
-688.27
-665.55
-617.50
-553.13
-482.05
-412.11
-348.19
-291.91
-242.05
-196.06
-151.16
-105.17
-56.97
-6.59
45.29
97.48
148.53
196.96
241.68
282.87
322.14
362.02
404.13
447.11
485.89
512.37
517.97
496.09
444.60
366.57
270.18
167.38
71.89
-3.26
-48.18
-58.12
-34.63
14.93
78.73
142.65
192.72
217.03
208.63
167.34
100.80
22.78
-50.52
-105.59
-135.60
-141.38
-130.58
-112.11
-93.14
-76.98
-63.62
-51.19
-37.90
-22.67
-4.06
17.68
44.44
78.94
123.88
180.45
247.20
320.02
393.64
464.95
530.45
590.74
647.18
699.68
745.37
779.34
796.81
795.61
778.80
748.19
708.22
661.63
608.91
549.16
481.73
407.30
317.72
231.46
148.61
71.21
0.49
-62.87
-118.44
-165.96
-205.34
-236.75
-259.02
-275.20
-286.39
-293.79
-298.43
-300.92
-301.26
-298.96
-293.27
-282.24
-267.32
-248.87
-227.89
-205.72
-183.76
-163.08
-144.34
-127.82
-112.85
-100.80
-92.32
-88.42
-90.19
-98.37
-113.05
-133.38
-157.84
-184.49
-212.60
-241.68
-271.90
-303.67
-337.44
-373.85
-414.19
-460.44
-514.23
-575.61
-640.88
-702.59
-751.20
-778.23
-779.28
-755.33
-711.70
-655.70
-594.53
-534.56
-481.56
-440.63
-414.93
-403.66
-400.82
-396.38
-379.76
-344.22
-289.43
-220.89
-146.53
-72.76
-2.02
67.24
138.47
214.52
296.01
380.44
461.82
530.88
576.34
588.13
561.45
500.02
416.34
328.29
253.01
201.08
173.91
165.19
165.06
164.45
157.24
140.29
112.56
74.73
30.05
-14.75
-49.82
-64.43
-50.28
-4.34
70.24
164.98
267.91
365.71
445.65
497.35
514.44
495.84
445.88
372.67
285.28
190.78
92.61
-9.26
-116.45
-229.58
-345.97
-459.16
-560.08
-639.53
-691.05
-712.81
-707.71
-682.06
-642.80
-595.27
-542.28
-484.70
-422.91
-358.18
-292.74
-228.70
-166.90
-106.05
-43.13
25.13
100.31
180.68
260.69
332.12
386.63
418.53
426.82
415.19
390.55
360.56
331.67
307.76
290.22
278.98
273.56
273.76
279.58
290.59
305.34
321.24
334.59
341.44
338.72
325.02
300.84
267.67
227.35
181.54
132.39
81.92
31.48
-19.03
-71.49
-128.82
-193.07
-263.22
-334.21
-396.51
-441.13
-463.05
-462.61
-444.16
-413.25
-374.28
-329.79
-281.11
-226.47
-166.14
-102.71
-39.65
21.00
79.80
138.97
200.39
264.27
333.76
408.79
486.15
561.33
631.21
695.78
757.59
819.45
881.96
948.40
1014.84
1070.14
1100.12
1093.93
1048.66
969.31
865.27
707.57
490.68
230.75
-39.46
-286.67
-490.23
-643.63
-749.25
-812.82
-844.59
-845.09
-813.91
-754.12
-673.40
-581.17
-485.36
-390.72
-299.17
-212.25
-128.81
-51.47
13.12
57.10
76.04
71.23
48.49
14.65
-25.25
-67.27
-111.23
-159.64
-214.37
-273.40
-329.81
-373.42
-394.49
-386.33
-347.34
-281.33
-196.10
-99.93
1.70
106.74
214.43
316.90
411.14
486.21
531.33
539.63
511.30
453.71
378.27
296.22
215.09
138.53
65.63
-4.67
-72.53
-137.35
-199.13
-259.70
-322.43
-389.72
-459.84
-526.92
-580.89
-611.54
-613.36
-588.34
-545.76
-499.09
-461.35
-440.96
-440.86
-457.73
-484.16
-510.95
-529.61
-534.28
-523.02
-497.73
-462.80
-423.35
-382.73
-341.62
-298.60
-251.49
-198.93
-141.19
-79.65
-15.96
48.80
114.91
184.04
259.09
343.16
437.59
539.87
642.51
733.71
800.20
831.21
822.16
776.67
705.80
625.14
550.90
496.25
468.72
468.81
490.12
520.88
546.77
554.56
535.42
486.68
411.47
316.37
208.33
92.50
-28.37
-152.47
-276.72
-395.37
-500.24
-582.85
-637.61
-663.50
-663.98
-644.86
-611.29
-566.07
-509.48
-441.46
-363.64
-280.41
-197.83
-121.25
-52.92
8.72
67.69
127.97
191.16
255.58
317.03
370.74
413.43
444.45
465.65
479.68
488.28
491.05
485.59
468.91
439.24
397.01
344.84
286.88
227.79
172.35
125.72
92.91
77.38
78.49
89.76
100.00
98.37
79.99
49.42
19.12
3.03
8.75
32.89
62.59
82.52
83.37
65.77
38.45
12.35
-5.51
-14.44
-18.46
-21.81
-30.18
-42.89
-54.61
-59.18
-53.63
-40.07
-24.35
-12.54
-8.20
-10.46
-16.91
-24.07
-29.09
-30.80
-29.85
-28.25
-28.90
-35.13
-46.87
-63.59
-83.64
-104.49
-123.41
-138.39
-148.79
-155.44
-160.04
-163.86
-166.91
-167.33
-162.31
-149.47
-128.11
-99.89
-68.56
-39.00
-15.56
-0.81
5.62
6.72
6.63
8.56
13.16
18.19
19.42
12.90
-3.24
-27.64
-56.54
-85.09
-108.47
-122.49
-123.93
-111.52
-87.20
-57.20
-31.20
-18.74
-24.47
-44.70
-67.70
-79.05
-68.51
-35.52
9.67
50.06
69.13
57.44
15.81
-45.40
-110.99
-166.04
-200.14
-210.21
-200.58
-179.84
-157.07
-138.26
-125.23
-117.93
-116.67
-123.26
-140.05
-167.47
-199.34
-222.51
-221.56
-186.22
-120.86
-43.74
20.40
51.42
41.11
-1.23
-53.11
-89.18
-90.72
-56.69
0.67
64.26
118.86
151.73
156.96
134.94
90.85
35.36
-24.80
-83.51
-134.52
-174.38
-209.61
-251.10
-308.86
-386.66
-476.25
-569.34
-655.54
-724.20
-734.29
-663.34
-518.41
-334.36
-179.08
-62.76
21.67
83.54
136.00
183.34
222.20
249.90
267.66
280.60
298.36
321.43
346.31
369.73
389.02
399.09
395.52
375.79
340.32
295.51
244.78
191.98
142.17
99.27
63.13
31.91
4.16
-19.83
-36.79
-47.26
-53.90
-59.57
-66.09
-73.91
-80.73
-82.36
-74.74
-55.25
-26.48
5.85
35.69
58.66
73.37
81.64
87.27
93.95
103.66
114.99
124.43
128.59
125.88
117.36
106.02
95.14
86.81
81.35
77.81
75.17
73.18
72.43
73.67
76.88
81.01
84.22
84.68
81.31
73.98
63.57
51.49
39.28
28.24
19.10
11.83
5.64
-0.62
-7.86
-16.28
-25.26
-33.75
-40.70
-45.45
-47.73
-47.41
-44.37
-38.50
-29.97
-19.36
-7.58
4.55
16.54
28.33
39.81
50.39
58.84
63.79
64.41
60.92
54.54
46.92
39.45
32.96
27.81
24.15
22.10
21.46
21.28
19.76
14.87
5.57
-7.30
-21.00
-32.18
-38.62
-40.24
-39.02
-37.57
-37.64
-39.60
-42.97
-47.72
-54.88
-65.98
-81.22
-98.04
-111.37
-115.85
-108.96
-92.95
-74.34
-60.80
-57.53
-65.03
-79.56
-95.63
-108.89
-117.43
-121.42
-121.93
-120.46
-119.62
-124.04
-139.80
-172.06
-221.59
-282.72
-344.38
-394.19
-423.35
-429.75
-417.72
-394.97
-368.62
-342.88
-318.95
-296.38
-274.50
-253.00
-231.38
-208.10
-180.98
-147.97
-108.22
-62.59
-13.29
36.85
85.90
133.70
182.59
236.39
298.26
368.12
440.65
505.62
550.58
565.49
546.35
497.15
427.22
347.66
267.87
193.85
128.15
70.56
19.88
-25.47
-64.36
-94.59
-113.34
-118.41
-109.25
-87.71
-58.71
-26.70
5.05
40.35
85.05
143.73
216.39
297.56
378.75
449.77
505.46
544.10
574.16
604.85
642.57
688.82
741.42
797.85
853.87
909.51
962.81
1017.99
1075.75
1132.95
1183.61
1221.91
1245.89
1254.48
1254.32
1192.41
1037.18
787.44
479.66
168.52
-102.94
-294.39
-425.37
-517.85
-587.53
-634.53
-656.99
-657.99
-644.07
-625.82
-613.34
-616.35
-634.07
-661.65
-685.13
-691.73
-674.24
-633.93
-580.12
-525.13
-482.20
-455.70
-444.97
-441.77
-437.89
-428.91
-415.81
-403.96
-399.03
-405.55
-421.93
-444.82
-469.66
-494.56
-520.21
-547.98
-577.28
-603.17
-618.10
-613.04
-582.74
-527.19
-451.72
-364.54
-274.31
-189.12
-116.28
-62.44
-31.45
-22.49
-28.42
-36.69
-32.92
-6.14
47.66
124.84
216.34
310.97
398.81
473.34
531.99
575.57
606.73
627.98
640.03
641.09
627.80
597.51
550.22
489.01
418.49
342.29
261.25
173.78
78.03
-25.69
-133.79
-240.07
-337.80
-421.28
-486.63
-531.75
-555.62
-557.60
-536.79
-492.46
-424.91
-337.01
-235.59
-131.18
-36.53
36.49
80.04
92.55
79.49
52.44
26.97
18.79
38.73
89.07
161.39
238.32
299.21
326.82
312.57
257.92
171.52
64.73
-51.45
-166.58
-270.19
-352.47
-407.44
-436.99
-451.54
-466.53
-495.49
-543.00
-601.86
-656.85
-692.25
-698.63
-676.58
-632.86
-576.10
-513.43
-448.59
-382.52
-315.32
-247.32
-179.46
-113.85
-49.60
16.17
86.10
160.78
237.25
307.28
358.60
378.51
356.73
295.47
208.92
117.65
42.27
-2.75
-13.07
6.92
48.14
98.37
152.60
211.09
275.16
331.52
362.37
353.29
302.69
244.90
194.70
158.76
140.47
129.51
120.68
112.13
104.29
99.10
98.35
99.15
100.77
103.18
105.50
107.79
110.71
115.38
122.96
133.70
143.89
152.02
157.86
161.38
163.92
167.02
172.40
181.96
197.68
219.59
248.30
283.17
320.56
354.72
378.71
386.52
374.53
341.88
289.08
219.58
139.62
58.29
-12.69
-61.03
-76.93
-56.59
-4.33
67.57
142.69
205.17
244.05
255.76
243.47
214.95
178.91
141.91
107.14
74.46
41.49
4.87
-38.57
-90.67
-150.78
-214.76
-274.92
-321.65
-346.48
-345.18
-319.48
-275.83
-222.70
-167.18
-113.08
-60.89
-9.16
44.12
101.05
163.83
234.39
313.07
396.90
478.87
549.25
598.80
622.13
619.99
598.72
567.35
533.98
503.21
475.59
448.84
419.93
386.61
347.93
304.03
255.66
203.62
149.30
94.05
39.10
-14.44
-65.87
-114.76
-160.84
-203.80
-243.58
-279.74
-312.16
-340.92
-365.99
-387.45
-405.79
-422.50
-440.27
-462.41
-489.45
-518.17
-540.75
-547.25
-530.43
-489.74
-432.38
-370.16
-315.61
-274.04
-246.85
-232.98
-231.97
-244.78
-271.33
-307.64
-345.10
-375.62
-388.51
-381.38
-357.44
-322.72
-283.50
-245.10
-212.07
-188.88
-183.27
-192.74
-216.35
-250.59
-290.45
-330.62
-366.12
-392.31
-404.92
-406.36
-391.17
-362.86
-326.90
-287.79
-246.67
-200.88
-145.84
-46.01
55.37
157.73
250.74
324.03
370.93
390.70
388.21
371.48
347.66
315.16
279.19
237.28
188.46
135.56
84.81
43.05
14.58
-0.53
-9.40
-11.51
-9.50
-4.55
2.14
7.33
5.57
-8.91
-39.22
-86.21
-141.19
-196.52
-245.98
-286.42
-317.44
-339.36
-351.90
-353.94
-345.94
-327.65
-302.33
-273.91
-245.29
-217.03
-187.71
-155.79
-121.63
-89.12
-63.21
-49.07
-48.47
-58.91
-74.98
-90.89
-102.87
-109.34
-110.26
-105.78
-96.08
-81.10
-61.73
-40.03
-18.61
1.17
21.13
44.82
75.30
112.09
152.79
193.95
233.04
268.91
301.97
335.04
369.79
405.83
438.42
464.28
482.12
493.36
500.34
506.07
516.92
538.42
573.60
617.83
665.35
708.80
741.10
754.82
744.51
712.07
662.93
604.63
540.73
478.99
428.37
397.47
389.45
378.67
345.75
281.03
217.81
165.43
124.31
80.46
28.45
-32.98
-100.79
-164.93
-215.73
-248.00
-267.94
-282.21
-295.38
-306.42
-312.18
-308.10
-288.54
-253.12
-208.07
-167.88
-143.55
-139.45
-151.56
-173.82
-199.88
-223.70
-242.42
-255.95
-268.05
-280.15
-291.55
-300.11
-307.10
-315.06
-325.42
-338.14
-351.50
-364.30
-374.30
-379.07
-363.72
-320.07
-249.33
-162.31
-73.54
6.12
71.03
120.80
157.83
185.01
202.56
210.34
209.02
201.05
190.30
179.23
169.31
161.00
153.70
144.87
132.46
115.63
95.54
74.62
52.88
28.20
-0.09
-34.06
-76.30
-127.87
-187.99
-253.96
-311.30
-349.69
-365.75
-362.83
-346.41
-320.12
-285.13
-243.76
-200.68
-161.64
-131.94
-111.82
-95.65
-75.46
-49.17
-15.14
23.49
62.10
98.29
131.73
164.30
195.12
220.68
237.88
240.88
225.30
191.36
144.22
90.71
36.63
-15.67
-67.84
-123.37
-183.93
-247.74
-308.36
-356.34
-383.55
-386.23
-366.66
-331.48
-288.50
-243.32
-197.55
-149.50
-97.12
-40.99
16.26
71.23
122.41
170.87
219.16
270.04
324.23
379.91
433.20
481.01
520.56
548.48
559.93
550.48
520.61
476.45
427.99
382.76
343.67
306.39
262.51
205.51
136.96
69.42
19.58
-0.53
8.49
37.33
72.31
102.58
123.37
126.69
111.85
83.48
60.74
48.17
45.77
50.11
62.35
83.29
110.33
137.91
156.96
158.36
134.90
87.41
23.02
-48.39
-118.95
-185.03
-245.16
-300.15
-350.86
-399.34
-446.48
-493.52
-541.57
-590.34
-636.28
-670.24
-681.71
-661.60
-607.77
-525.11
-425.16
-322.11
-228.07
-150.13
-87.45
-35.25
13.73
66.01
126.66
198.18
280.34
370.47
462.68
550.72
616.08
639.02
608.92
533.17
433.70
334.05
255.19
194.72
145.74
102.21
62.53
28.11
0.65
-20.45
-39.30
-61.50
-92.70
-134.40
-185.73
-242.55
-298.17
-344.65
-374.87
-384.48
-373.14
-345.65
-308.73
-270.09
-234.80
-203.88
-175.24
-146.58
-117.91
-91.80
-72.05
-60.08
-54.48
-51.16
-45.18
-32.98
-13.52
12.16
42.47
75.93
111.86
149.32
187.28
225.20
263.71
304.16
347.03
390.25
428.54
455.13
464.54
455.57
432.26
402.23
373.21
349.73
331.88
316.60
300.30
281.27
260.27
239.49
220.82
204.76
190.09
174.61
156.10
133.29
106.20
75.94
44.22
12.52
-18.43
-49.00
-80.51
-114.61
-152.65
-195.12
-241.55
-290.71
-340.82
-389.80
-435.29
-474.72
-505.77
-526.91
-538.28
-541.84
-540.86
-538.65
-537.05
-535.60
-531.62
-521.44
-501.86
-471.34
-430.28
-380.47
-324.07
-263.00
-198.67
-132.46
-66.39
-3.42
52.50
97.36
128.41
145.38
151.22
151.52
152.70
159.54
173.62
192.62
211.90
227.13
236.34
240.49
242.09
243.15
243.52
241.78
235.98
225.61
212.19
198.11
184.61
170.33
151.29
122.15
79.38
21.84
-47.97
-123.98
-197.63
-259.64
-302.16
-320.75
-316.12
-292.31
-256.52
-215.77
-174.38
-132.94
-89.08
-39.84
17.61
75.13
125.46
158.90
167.90
150.54
111.89
62.46
14.45
-22.70
-45.14
-53.02
-49.65
-38.13
-19.96
4.27
33.22
63.66
90.96
110.66
121.41
124.44
123.27
121.97
123.36
128.14
135.10
141.93
146.02
145.85
140.53
130.24
116.14
100.10
84.23
70.25
58.89
49.44
40.25
29.04
14.00
-5.38
-27.83
-50.69
-70.88
-86.20
-96.37
-103.49
-111.54
-124.75
-145.52
-172.61
-200.81
-222.29
-229.29
-216.82
-184.30
-135.39
-76.95
-17.51
34.10
69.88
84.34
76.57
51.53
19.19
-9.11
-25.45
-28.72
-24.34
-20.34
-22.10
-29.12
-36.07
-36.48
-26.99
-8.90
13.51
36.47
58.98
82.85
110.28
141.41
173.31
201.49
222.20
234.65
241.42
247.43
258.10
277.04
303.67
332.20
352.64
354.22
330.54
283.31
221.96
159.42
105.82
64.22
30.83
-1.07
-36.67
-77.42
-122.30
-170.37
-221.68
-275.92
-329.83
-376.49
-407.80
-418.75
-410.52
-389.76
-364.62
-340.13
-316.35
-289.96
-257.83
-219.67
-178.14
-136.82
-97.57
-59.23
-18.54
27.16
77.25
126.73
167.62
192.92
200.51
195.09
186.16
182.68
187.36
194.55
193.17
173.50
133.50
80.61
27.81
-13.63
-40.02
-56.13
-70.56
-89.44
-112.03
-131.33
-138.54
-127.95
-99.36
-56.83
-5.35
51.31
110.37
167.90
217.21
249.80
258.78
242.09
203.73
152.54
98.91
51.80
17.02
-3.42
-11.52
-13.29
-17.89
-34.66
-68.90
-118.71
-175.02
-225.23
-258.95
-272.28
-268.17
-253.80
-236.98
-224.19
-220.97
-232.28
-261.43
-307.66
-363.92
-417.68
-454.83
-465.31
-446.91
-405.38
-350.78
-292.49
-236.11
-182.72
-130.64
-77.69
-22.74
34.12
91.98
150.08
207.83
264.86
320.92
375.96
430.07
484.16
540.23
601.16
669.61
746.06
827.12
905.19
970.15
1012.56
1027.02
1013.97
978.89
929.52
872.62
811.92
748.14
680.47
608.40
532.68
455.21
378.08
302.90
230.68
162.20
98.55
41.15
-8.39
-48.95
-80.24
-103.07
-118.94
-129.63
-136.55
-140.49
-141.66
-139.99
-135.59
-129.01
-121.18
-113.17
-105.82
-99.63
-94.82
-91.67
-90.71
-92.90
-99.25
-110.36
-126.09
-145.39
-166.68
-188.61
-210.69
-233.39
-257.73
-284.51
-313.60
-343.76
-372.81
-398.14
-416.92
-426.17
-422.89
-404.78
-371.50
-325.96
-274.48
-225.21
-185.17
-157.21
-138.87
-124.09
-106.79
-84.58
-60.64
-42.16
-36.62
-47.88
-74.13
-108.74
-143.61
-172.55
-192.91
-204.84
-209.05
-205.07
-191.43
-167.67
-136.48
-103.91
-77.18
-61.08
-55.29
-54.28
-50.64
-39.54
-21.90
-4.18
5.27
1.03
-16.41
-41.11
-65.07
-82.91
-94.61
-105.24
-122.15
-150.87
-192.38
-242.97
-296.27
-345.93
-387.66
-419.60
-441.47
-453.59
-456.43
-450.80
-438.21
-421.02
-402.09
-384.24
-369.73
-359.95
-355.15
-354.28
-354.94
-353.85
-347.58
-333.79
-312.18
-284.54
-253.91
-223.06
-193.46
-164.94
-136.11
-105.44
-72.26
-36.78
0.37
38.11
74.44
105.68
126.55
131.75
118.53
88.96
50.26
12.39
-15.85
-30.20
-31.94
-25.94
-17.34
-8.94
-0.65
9.05
20.98
34.21
46.60
56.35
63.57
70.38
79.92
95.02
116.99
144.95
176.74
209.87
242.85
275.72
309.83
346.96
388.63
435.95
489.48
549.30
614.48
682.34
747.82
803.82
842.41
857.34
846.44
811.75
758.87
694.51
624.60
552.97
481.40
410.01
338.92
269.14
201.41
135.69
69.85
1.61
-69.51
-139.60
-200.49
-241.94
-256.11
-243.09
-210.42
-170.99
-134.83
-105.03
-77.80
-47.39
-19.67
-5.24
-16.22
-56.67
-121.07
-194.75
-263.26
-314.50
-349.54
-371.10
-378.26
-367.70
-334.59
-280.00
-208.36
-128.50
-49.45
22.73
87.77
149.38
201.69
253.55
295.52
317.06
309.26
268.79
198.26
105.35
-0.11
-108.81
-211.11
-300.66
-370.17
-414.09
-430.14
-420.85
-392.40
-352.52
-308.22
-262.82
-219.04
-177.05
-136.73
-98.32
-62.19
-27.80
6.64
44.00
88.15
140.44
200.26
263.01
320.75
364.44
387.26
387.25
368.08
337.46
302.61
268.20
234.58
199.19
159.10
113.06
61.73
6.28
-52.98
-116.94
-185.47
-255.11
-318.19
-364.16
-383.25
-370.23
-326.38
-258.69
-177.23
-92.39
-13.35
52.40
99.30
124.75
130.52
123.44
114.31
114.48
131.81
167.41
215.26
264.22
301.61
317.30
306.93
273.48
226.19
176.95
135.26
104.65
82.32
62.61
41.86
21.17
4.96
-3.01
-3.92
-4.34
-12.34
-32.48
-62.27
-93.27
-116.21
-126.31
-125.57
-120.28
-116.50
-116.14
-117.29
-117.06
-114.76
-113.27
-117.23
-129.50
-148.59
-169.29
-185.13
-193.46
-196.91
-201.48
-212.03
-228.17
-243.36
-247.93
-234.78
-202.12
-155.08
-101.98
-49.79
-0.80
47.44
99.09
158.04
217.82
270.97
307.55
319.51
303.92
263.99
207.41
143.27
78.94
18.15
-37.75
-89.25
-136.73
-179.67
-217.24
-249.52
-278.50
-308.00
-342.58
-384.36
-431.95
-479.25
-516.56
-533.98
-524.97
-488.95
-431.39
-361.31
-286.97
-213.58
-142.39
-72.53
-3.86
61.23
117.97
161.44
189.52
204.78
213.71
224.03
241.42
267.08
297.51
326.84
350.15
365.93
376.48
385.94
397.67
412.54
428.87
443.75
454.64
460.17
460.13
454.46
442.86
424.80
399.97
368.73
332.29
292.62
252.19
213.68
179.31
150.21
125.63
102.59
76.40
42.19
-3.02
-58.82
-120.49
-179.64
-226.27
-251.30
-248.94
-218.12
-162.71
-90.78
-13.22
58.57
115.37
152.09
168.49
167.95
154.63
130.76
95.83
48.54
-9.94
-73.83
-133.81
-181.17
-212.72
-232.75
-251.09
-277.69
-317.78
-369.86
-427.31
-481.96
-527.21
-559.96
-580.40
-590.77
-593.64
-590.50
-581.13
-563.92
-536.95
-499.54
-453.74
-404.51
-357.67
-317.03
-282.52
-250.12
-214.07
-169.62
-115.04
-53.03
9.52
62.29
94.35
97.26
68.24
12.15
-59.14
-129.07
-182.50
-210.37
-212.52
-194.11
-162.26
-122.63
-78.68
-32.03
17.92
70.84
125.19
176.86
224.40
268.64
312.28
356.91
402.33
449.53
497.78
545.36
587.09
622.21
653.61
686.53
723.68
763.38
803.03
836.45
856.62
854.29
828.99
787.47
741.01
698.57
641.74
557.63
441.48
328.61
232.13
156.17
91.66
35.24
-15.58
-62.76
-104.07
-137.76
-163.35
-186.87
-211.63
-238.77
-266.85
-294.92
-322.40
-346.24
-364.46
-376.81
-388.69
-404.21
-426.26
-455.31
-490.37
-527.75
-559.09
-575.23
-569.67
-543.76
-503.33
-457.25
-413.98
-379.48
-355.42
-338.82
-325.07
-310.01
-292.09
-270.04
-242.60
-208.50
-167.72
-121.91
-73.86
-26.84
16.28
53.25
83.21
106.12
122.43
132.85
138.66
141.54
143.06
144.09
144.64
144.14
142.09
138.64
134.67
131.35
129.42
128.67
127.76
124.63
117.27
104.58
86.76
65.36
42.54
20.50
0.77
-16.12
-30.59
-43.55
-56.09
-69.20
-83.56
-99.36
-115.83
-130.81
-140.83
-141.97
-131.30
-108.21
-75.01
-36.19
3.11
38.54
67.27
87.75
99.25
101.42
94.76
81.31
65.02
51.29
45.30
50.38
66.87
92.31
122.44
152.75
179.87
201.98
218.91
231.62
241.84
251.55
262.80
277.28
295.69
317.06
338.70
356.88
368.18
370.93
365.68
354.71
340.63
325.15
308.74
291.28
273.15
255.75
240.92
229.77
221.58
213.94
204.00
190.27
173.49
156.40
142.12
132.35
126.44
121.35
112.79
96.43
69.30
30.75
-16.78
-67.38
-112.24
-141.62
-148.10
-129.87
-92.32
-46.79
-6.53
18.30
24.13
14.38
-3.32
-21.18
-34.24
-41.15
-42.65
-39.59
-31.80
-18.65
-0.43
20.50
39.73
52.43
55.21
47.63
32.15
12.89
-6.41
-24.06
-41.07
-60.44
-85.46
-117.92
-157.10
-200.00
-242.58
-281.70
-316.29
-347.68
-378.91
-413.17
-452.80
-498.59
-549.63
-603.45
-655.95
-701.58
-734.21
-749.08
-745.06
-725.86
-699.03
-672.85
-652.50
-637.77
-623.57
-603.12
-571.80
-529.48
-480.10
-429.14
-380.70
-336.05
-294.15
-253.30
-212.67
-172.77
-134.62
-98.84
-64.93
-31.47
3.27
40.47
80.43
122.40
164.98
206.89
247.80
288.97
333.03
382.49
437.16
492.66
540.17
568.80
569.41
538.07
477.24
394.31
298.46
197.87
98.84
6.69
-72.91
-133.80
-171.02
-183.23
-174.05
-150.91
-122.21
-93.79
-67.03
-39.28
-6.39
33.52
78.02
120.75
154.16
172.28
172.66
156.63
128.72
95.69
64.93
43.66
37.91
52.09
86.83
137.90
196.67
252.17
295.24
320.39
326.04
313.36
285.76
247.26
202.43
156.66
115.61
85.82
71.90
75.16
93.93
126.77
172.53
229.70
294.72
360.20
417.82
459.78
481.31
474.97
441.55
390.10
334.23
290.28
258.34
233.26
210.06
185.59
159.58
133.91
109.70
86.45
62.37
35.00
4.61
-26.75
-56.55
-82.63
-103.15
-117.78
-127.92
-136.21
-145.89
-158.02
-172.14
-187.01
-201.30
-213.64
-223.67
-232.27
-241.34
-253.32
-269.08
-288.23
-309.55
-331.52
-352.93
-373.75
-394.98
-417.97
-443.57
-471.17
-499.33
-526.50
-551.25
-571.77
-585.26
-587.90
-575.96
-547.49
-503.69
-449.10
-390.24
-333.29
-282.15
-237.94
-199.95
-167.25
-139.67
-117.86
-102.48
-93.33
-89.37
-89.18
-91.51
-95.69
-101.64
-109.25
-117.87
-125.98
-131.40
-131.82
-125.48
-111.63
-90.77
-64.24
-33.59
0.03
36.17
74.99
116.78
161.38
207.89
254.56
299.34
340.39
376.70
408.54
437.51
466.20
497.40
532.99
572.65
613.23
648.94
672.89
679.20
665.10
631.90
584.46
529.32
472.40
417.41
365.51
316.21
268.82
223.53
181.47
144.05
111.90
84.21
58.79
32.70
3.01
-32.66
-76.08
-128.04
-187.72
-251.92
-314.88
-369.18
-407.82
-426.50
-424.98
-406.68
-376.84
-340.23
-299.72
-256.40
-210.49
-162.77
-114.80
-68.24
-23.76
19.79
65.36
116.96
178.20
250.58
331.78
415.16
490.72
547.98
579.46
583.29
563.56
528.37
486.62
445.07
407.01
372.94
341.88
312.64
283.99
254.42
221.82
184.02
139.53
87.87
29.99
-32.43
-97.73
-165.41
-236.06
-310.24
-386.42
-459.53
-521.50
-562.66
-575.33
-556.96
-511.88
-449.80
-382.62
-320.19
-267.82
-226.97
-196.72
-176.29
-164.75
-160.63
-161.57
-165.09
-169.02
-170.27
-168.80
-163.28
-151.42
-129.64
-94.56
-44.38
17.30
82.41
139.85
175.48
179.76
150.63
95.36
28.60
-32.06
-72.28
-85.01
-70.88
-39.36
-0.23
39.16
76.05
111.77
150.34
195.19
239.91
290.48
338.51
375.61
394.21
389.81
361.77
314.64
256.82
198.21
148.64
112.09
89.88
79.82
77.78
74.08
61.94
39.89
12.20
-13.60
-33.99
-48.32
-58.45
-65.95
-72.32
-77.44
-80.28
-80.61
-79.27
-79.75
-84.89
-96.39
-114.16
-137.22
-165.10
-198.03
-236.63
-280.62
-328.22
-373.90
-409.37
-416.01
-383.36
-314.54
-225.22
-134.94
-57.46
2.65
47.79
82.01
107.00
121.26
121.90
107.94
81.65
47.61
9.90
-29.59
-70.85
-111.93
-149.77
-178.05
-187.62
-170.03
-122.47
-51.57
26.75
92.37
128.59
128.09
96.32
49.14
5.43
-20.65
-24.51
-11.12
10.82
31.56
44.21
48.13
47.70
47.23
47.52
47.08
43.20
36.32
31.06
33.54
48.03
74.67
107.68
139.11
162.26
173.84
171.70
158.08
137.65
115.67
96.46
82.33
73.60
68.51
64.74
57.93
45.44
27.67
8.19
-7.38
-13.94
-9.18
5.40
24.83
42.94
56.07
64.17
69.86
75.40
80.11
80.45
72.37
54.52
29.96
5.46
-12.31
-20.06
-19.26
-14.89
-12.30
-14.39
-20.81
-29.11
-36.38
-41.08
-43.24
-43.96
-44.22
-44.34
-43.86
-42.10
-38.64
-33.35
-26.42
-18.04
-8.26
3.03
15.44
27.46
36.14
37.86
30.12
13.18
-9.50
-32.82
-52.55
-67.16
-77.86
-86.70
-94.37
-99.34
-99.17
-92.75
-81.97
-71.20
-65.02
-65.58
-71.51
-78.97
-83.95
-84.32
-80.19
-72.93
-63.73
-52.81
-39.79
-24.58
-8.02
8.23
22.38
33.35
41.05
46.27
50.18
53.87
58.01
62.75
67.70
72.08
74.86
75.17
72.55
67.31
60.34
52.88
45.94
39.94
34.53
28.83
21.95
13.38
3.33
-7.31
-17.23
-25.12
-30.11
-32.06
-31.43
-28.81
-24.73
-19.46
-13.37
-7.24
-2.39
-0.32
-2.37
-8.97
-19.35
-31.95
-45.00
-57.17
-67.75
-76.47
-83.00
-87.49
-90.24
-91.93
-93.86
-97.68
-104.92
-116.17
-130.80
-146.92
-162.59
-175.72
-184.09
-185.67
-179.04
-164.25
-143.30
-119.80
-97.52
-80.42
-70.47
-67.33
-69.00
-72.97
-77.16
-80.41
-82.49
-77.27
-61.47
-34.98
-1.54
33.13
64.04
88.67
106.42
115.17
114.67
102.81
77.50
38.45
-11.60
-66.95
-120.02
-160.66
-181.44
-179.52
-158.53
-126.14
-90.89
-59.30
-34.24
-15.26
0.00
14.35
31.21
53.89
85.88
129.31
182.80
240.12
291.15
325.25
335.14
320.07
285.11
238.73
189.07
141.67
99.19
62.60
32.17
7.86
-10.88
-25.23
-35.94
-42.05
-40.98
-30.40
-10.78
12.25
30.49
36.93
29.85
14.13
-1.09
-7.73
-2.97
10.53
26.18
39.66
51.22
65.55
87.79
119.90
157.44
190.53
208.76
203.44
173.17
122.83
62.08
1.68
-48.20
-80.95
-94.46
-89.24
-70.11
-41.32
-6.99
30.82
71.77
118.16
171.49
222.93
275.74
321.11
352.00
364.10
358.24
328.79
277.30
211.06
140.40
75.06
18.22
-26.00
-60.28
-86.98
-108.64
-127.67
-148.66
-176.76
-214.93
-264.20
-319.64
-372.49
-411.89
-429.53
-421.53
-390.76
-345.24
-293.87
-244.24
-199.10
-158.34
-121.02
-88.36
-63.37
-50.08
-51.03
-65.28
-88.97
-115.92
-140.48
-158.89
-170.62
-177.45
-182.37
-187.82
-194.14
-199.19
-198.64
-187.90
-163.89
-126.59
-78.97
-25.85
27.59
77.08
119.79
154.26
180.34
199.62
215.52
232.65
255.07
284.20
317.16
347.12
365.68
366.47
348.07
314.78
274.85
237.13
207.79
188.59
177.15
168.70
158.28
142.35
119.42
89.61
53.86
13.03
-32.64
-83.75
-141.32
-205.90
-276.30
-348.45
-415.37
-468.50
-500.43
-507.51
-491.20
-457.44
-414.10
-368.05
-323.03
-279.52
-236.17
-191.82
-146.75
-102.50
-60.61
-21.32
16.71
55.44
96.00
137.51
177.22
211.80
239.22
259.61
274.41
284.49
288.50
283.20
265.82
236.95
201.94
169.15
145.94
134.81
132.12
130.53
123.54
109.58
93.10
82.09
83.81
101.16
131.77
169.64
207.93
241.15
265.98
280.95
285.64
280.28
265.68
243.32
215.08
182.74
147.14
107.88
64.02
15.63
-34.27
-78.90
-108.53
-113.57
-88.41
-34.59
38.52
116.28
183.58
229.80
251.65
252.67
240.17
221.34
200.64
179.46
157.47
134.45
111.11
88.55
67.21
45.96
22.36
-6.14
-40.85
-81.59
-127.02
-174.99
-222.94
-267.76
-305.91
-334.14
-350.33
-354.58
-349.40
-339.08
-328.65
-323.28
-327.80
-346.32
-381.02
-430.28
-487.28
-540.56
-577.12
-587.03
-567.53
-524.04
-467.57
-410.01
-359.47
-318.30
-283.93
-251.34
-215.63
-173.34
-122.49
-62.88
2.82
68.09
122.71
155.59
159.52
135.08
92.24
47.82
19.95
21.92
57.85
121.94
200.87
278.19
338.99
373.13
376.51
350.37
300.04
233.34
160.00
91.16
38.52
11.37
12.93
37.66
71.85
98.97
107.12
94.88
72.10
54.96
57.92
87.02
137.72
197.84
253.35
293.44
313.05
312.26
294.50
264.72
227.88
188.40
149.55
113.11
79.62
49.00
20.77
-6.06
-33.10
-62.31
-94.87
-129.85
-163.70
-191.24
-208.06
-212.93
-208.65
-200.50
-193.12
-188.07
-183.68
-177.13
-167.24
-156.21
-148.66
-149.30
-160.33
-180.56
-205.98
-231.39
-251.85
-263.41
-263.71
-252.06
-229.63
-199.27
-164.78
-129.53
-95.29
-61.67
-26.27
14.01
60.97
113.33
165.79
209.81
236.56
240.72
223.35
192.28
159.18
134.90
125.41
130.16
143.44
157.36
164.83
161.42
145.96
120.37
89.26
59.24
37.71
30.99
42.23
70.16
109.18
151.34
188.86
216.89
234.69
244.93
251.87
259.19
268.50
279.50
290.92
301.39
309.89
314.81
313.13
300.75
274.22
233.08
181.39
126.68
76.89
37.04
7.46
-15.38
-36.07
-57.27
-78.23
-95.58
-105.46
-105.62
-96.37
-80.13
-60.38
-40.49
-23.67
-13.05
-11.45
-20.33
-38.77
-63.16
-88.78
-111.82
-130.87
-146.70
-159.95
-168.99
-169.43
-156.10
-126.66
-84.61
-39.22
-2.24
16.89
14.84
-5.10
-36.11
-72.31
-111.86
-156.63
-208.58
-265.72
-320.12
-360.08
-375.64
-363.93
-331.25
-290.15
-252.96
-225.96
-207.27
-190.19
-168.87
-142.98
-117.65
-99.49
-91.77
-91.96
-93.33
-89.36
-77.96
-62.47
-49.45
-44.11
-46.80
-52.46
-53.03
-41.47
-15.13
23.33
67.81
111.87
151.77
187.68
223.02
262.15
307.75
359.02
411.46
458.32
492.90
510.28
508.39
487.96
452.11
405.42
353.05
299.87
249.60
203.97
162.75
124.41
87.41
51.28
16.85
-14.79
-43.76
-72.28
-103.90
-141.24
-183.63
-226.32
-262.09
-284.46
-290.79
-283.38
-268.01
-250.82
-235.04
-219.41
-199.13
-168.70
-125.38
-71.19
-12.79
40.81
81.54
105.12
111.92
106.19
93.96
80.68
69.99
63.65
62.16
65.29
72.35
81.90
91.75
99.45
103.10
102.14
97.41
90.57
83.28
76.68
71.07
66.13
61.08
54.89
46.61
35.85
23.35
11.30
2.81
0.65
5.86
17.03
30.70
42.92
50.55
52.16
47.65
37.56
22.70
4.74
-13.28
-26.89
-32.07
-27.44
-15.90
-4.11
0.08
-9.19
-33.41
-69.09
-108.91
-143.87
-166.04
-170.78
-158.33
-134.00
-106.35
-84.15
-72.99
-73.28
-80.85
-89.73
-95.02
-94.53
-88.34
-77.38
-62.83
-46.77
-33.01
-26.76
-32.14
-49.00
-71.62
-90.58
-97.23
-88.12
-66.83
-41.80
-21.61
-10.61
-7.61
-7.62
-5.78
-0.37
6.44
10.53
8.73
0.98
-9.54
-18.49
-22.70
-21.48
-16.19
-8.54
1.00
13.50
30.07
50.25
71.10
88.21
98.05
99.52
93.85
82.55
65.68
41.27
7.69
-33.87
-77.96
-116.59
-142.79
-154.15
-154.12
-150.49
-152.18
-165.80
-193.52
-232.47
-275.83
-314.58
-339.79
-345.13
-328.52
-292.23
-241.23
-180.76
-114.92
-46.85
19.73
79.41
125.58
153.08
160.74
152.32
134.93
115.80
99.52
87.29
78.11
70.48
63.78
58.20
54.25
52.29
52.51
55.22
60.51
67.69
74.70
78.83
77.96
72.21
64.52
59.62
61.67
71.88
87.60
103.22
112.50
111.18
98.75
78.43
55.56
35.41
21.20
13.60
11.35
12.53
15.67
20.09
25.74
32.83
41.66
52.64
66.35
83.24
102.93
123.96
144.12
161.30
174.55
184.48
192.61
200.19
207.09
211.44
210.33
201.02
182.34
155.29
122.66
87.89
54.01
22.93
-4.45
-27.79
-47.12
-63.41
-79.29
-99.42
-129.34
-172.80
-228.81
-290.44
-346.50
-385.78
-401.66
-394.73
-371.84
-342.67
-315.56
-294.93
-281.27
-272.89
-267.78
-264.64
-262.83
-261.98
-261.80
-262.13
-262.87
-263.55
-262.64
-257.56
-245.39
-224.31
-194.54
-158.44
-119.40
-80.13
-41.69
-3.35
36.52
79.13
124.25
169.80
212.18
247.24
271.65
284.29
287.24
285.57
286.03
295.18
317.27
352.76
397.67
444.23
482.70
503.94
502.11
476.68
432.54
378.48
324.08
276.72
239.83
213.19
194.49
180.84
169.63
158.88
147.71
137.12
130.66
133.74
151.32
184.68
229.21
274.81
309.32
323.35
314.20
286.42
249.01
210.82
177.23
149.87
128.77
114.88
110.77
118.88
138.75
165.56
191.31
208.19
212.25
204.99
191.70
178.11
166.95
156.78
143.56
123.45
95.20
60.77
24.04
-11.39
-43.97
-74.60
-105.95
-140.70
-179.82
-221.89
-263.55
-300.99
-331.64
-355.28
-373.96
-391.02
-409.71
-432.23
-459.36
-490.21
-521.83
-548.97
-564.77
-563.12
-541.70
-504.21
-460.18
-421.63
-397.84
-391.01
-395.26
-399.46
-392.40
-367.45
-324.36
-267.98
-205.28
-142.63
-84.85
-35.49
2.50
26.77
36.20
31.76
16.80
-3.44
-23.12
-37.49
-44.17
-43.57
-38.29
-31.86
-27.24
-25.76
-26.70
-27.85
-26.49
-20.49
-9.13
6.50
23.83
39.72
51.53
58.01
59.75
58.83
57.75
58.37
61.23
65.63
70.34
74.27
76.93
78.34
78.58
77.66
75.46
71.89
67.08
61.44
55.49
49.71
44.49
40.14
36.92
34.90
33.79
32.80
30.70
26.07
17.80
5.61
-9.70
-26.15
-41.01
-51.49
-55.51
-52.32
-42.62
-28.34
-11.96
4.13
18.03
28.56
35.08
37.39
35.66
30.45
22.92
14.62
7.26
2.20
0.16
1.10
4.47
9.44
15.18
20.95
26.06
29.93
32.03
32.10
30.08
26.22
20.94
14.85
8.59
2.75
-2.22
-6.13
-9.10
-11.52
-13.92
-16.83
-20.49
-24.77
-29.13
-32.74
-34.70
-34.34
-31.38
-25.97
-18.59
-9.83
-0.28
9.54
19.15
28.06
35.79
42.05
46.78
50.17
52.54
54.18
55.24
55.74
55.68
55.10
54.16
53.04
51.90
50.87
50.04
49.45
49.07
48.72
48.07
46.70
44.25
40.60
35.86
30.38
24.57
18.76
13.12
7.65
2.22
-3.32
-9.13
-15.32
-21.84
-28.36
-34.22
-38.53
-40.33
-38.89
-34.02
-26.13
-16.20
-5.48
4.87
14.02
21.60
27.60
32.14
35.35
37.23
37.73
36.89
35.01
32.59
30.20
28.21
26.68
25.30
23.61
21.27
18.27
14.93
11.67
8.80
6.38
4.23
2.17
0.17
-1.62
-2.96
-3.80
-4.34
-5.02
-6.31
-8.50
-11.58
-15.34
-19.51
-23.84
-28.07
-31.84
-34.52
-35.41
-33.86
-29.62
-22.98
-14.71
-5.84
2.74
10.47
17.19
22.96
27.91
31.98
35.02
36.78
37.13
36.17
34.18
31.58
28.73
25.84
22.98
20.16
17.44
14.97
12.93
11.35
10.09
8.86
7.34
5.37
3.05
0.65
-1.55
-3.45
-5.20
-7.11
-9.50
-12.59
-16.43
-20.98
-26.05
-31.33
-36.26
-40.07
-41.93
-41.16
-37.57
-31.58
-24.12
-16.33
-9.18
-3.22
1.47
5.14
8.08
10.48
12.33
13.49
13.84
13.37
12.22
10.64
8.89
7.19
5.65
4.27
3.01
1.75
0.38
-1.17
-2.91
-4.80
-6.73
-8.62
-10.47
-12.33
-14.35
-16.64
-19.30
-22.42
-26.09
-30.37
-35.11
-39.86
-43.79
-45.84
-45.06
-40.96
-33.78
-24.45
-14.24
-4.40
4.17
11.03
16.07
19.35
21.00
21.21
20.24
18.48
16.37
14.28
12.40
10.73
9.06
7.17
4.91
2.35
-0.28
-2.69
-4.64
-6.15
-7.42
-8.73
-10.31
-12.14
-14.06
-15.84
-17.43
-19.04
-21.10
-24.06
-28.18
-33.30
-38.83
-43.83
-47.22
-48.12
-45.99
-40.83
-33.20
-24.03
-14.43
-5.41
2.40
8.72
13.57
17.18
19.73
21.35
22.06
21.92
20.99
19.46
17.63
15.81
14.24
13.08
12.33
11.92
11.74
11.61
11.28
10.52
9.09
6.92
4.14
1.03
-2.07
-4.95
-7.60
-10.24
-13.15
-16.56
-20.55
-25.03
-29.74
-34.28
-38.05
-40.30
-40.25
-37.33
-31.44
-23.03
-13.11
-2.87
6.66
14.83
21.42
26.50
30.16
32.46
33.43
33.18
31.98
30.20
28.20
26.22
24.29
22.39
20.49
18.64
16.99
15.64
14.62
13.82
13.05
12.01
10.47
8.23
5.32
1.98
-1.43
-4.51
-7.10
-9.30
-11.48
-14.12
-17.57
-21.97
-27.19
-32.83
-38.30
-42.73
-45.19
-44.76
-40.90
-33.65
-23.74
-12.38
-0.94
9.47
18.22
25.09
30.09
33.29
34.71
34.40
32.62
29.89
26.92
24.36
22.56
21.51
20.80
19.95
18.64
16.84
14.86
13.03
11.58
10.43
9.21
7.51
5.08
1.96
-1.55
-5.01
-8.12
-10.74
-13.02
-15.25
-17.77
-20.92
-24.92
-29.73
-34.93
-39.67
-42.78
-43.07
-39.72
-32.65
-22.62
-10.99
0.69
11.16
19.77
26.43
31.40
34.95
37.22
38.17
37.80
36.28
34.06
31.73
29.82
28.58
28.00
27.82
27.73
27.48
26.98
26.18
25.12
23.85
22.42
20.89
19.26
17.45
15.31
12.65
9.41
5.64
1.61
-2.32
-5.86
-8.87
-11.41
-13.76
-16.26
-19.25
-22.86
-27.03
-31.33
-35.06
-37.31
-37.18
-33.98
-27.55
-18.34
-7.34
4.15
14.86
23.89
30.79
35.52
38.32
39.45
39.19
37.83
35.73
33.28
30.88
28.76
26.94
25.27
23.52
21.53
19.33
17.10
15.08
13.43
12.19
11.23
10.37
9.48
8.50
7.49
6.54
5.64
4.68
3.46
1.78
-0.47
-3.20
-6.16
-9.04
-11.57
-13.61
-15.27
-16.81
-18.59
-20.94
-23.99
-27.56
-31.19
-34.15
-35.63
-34.88
-31.54
-25.67
-17.88
-9.12
-0.44
7.31
13.62
18.32
21.48
23.21
23.56
22.63
20.56
17.71
14.62
11.86
9.85
8.73
8.40
8.54
8.87
9.17
9.33
9.35
9.22
8.94
8.53
7.98
7.31
6.52
5.54
4.31
2.77
0.93
-1.12
-3.26
-5.43
-7.63
-9.94
-12.45
-15.15
-17.98
-20.83
-23.62
-26.28
-28.71
-30.62
-31.50
-30.71
-27.79
-22.66
-15.83
-8.23
-0.93
5.26
10.02
13.44
15.81
17.29
17.81
17.26
15.65
13.34
10.91
8.98
7.89
7.59
7.79
8.13
8.40
8.60
8.83
9.13
9.46
9.66
9.60
9.23
8.60
7.75
6.70
5.37
3.65
1.45
-1.19
-4.15
-7.13
-9.86
-12.13
-13.92
-15.41
-16.93
-18.86
-21.41
-24.54
-27.86
-30.74
-32.44
-32.32
-30.00
-25.50
-19.23
-11.86
-4.21
2.97
9.09
13.78
16.96
18.70
19.22
18.80
17.71
16.22
14.57
12.95
11.54
10.45
9.69
9.13
8.61
7.99
7.19
6.25
5.31
4.52
3.97
3.68
3.57
3.51
3.32
2.88
2.10
0.96
-0.44
-1.95
-3.43
-4.75
-5.91
-7.04
-8.42
-10.32
-12.96
-16.33
-20.11
-23.71
-26.30
-27.19
-25.94
-22.58
-17.59
-11.70
-5.66
-0.00
4.93
9.02
12.16
14.32
15.44
15.59
14.90
13.66
12.19
10.77
9.62
8.83
8.38
8.16
7.98
7.69
7.24
6.70
6.23
5.98
5.97
6.05
5.90
5.25
3.94
2.05
-0.18
-2.43
-4.46
-6.20
-7.75
-9.28
-10.99
-13.01
-15.44
-18.25
-21.31
-24.35
-26.89
-28.36
-28.22
-26.14
-22.19
-16.83
-10.74
-4.66
0.87
5.57
9.35
12.17
14.01
14.81
14.58
13.49
11.84
10.05
8.52
7.51
7.06
6.99
7.04
6.92
6.52
5.89
5.22
4.72
4.47
4.34
4.05
3.25
1.71
-0.56
-3.31
-6.13
-8.63
-10.60
-12.09
-13.38
-14.86
-16.83
-19.40
-22.38
-25.26
-27.37
-28.04
-26.81
-23.55
-18.55
-12.41
-5.88
0.32
5.72
10.09
13.41
15.80
17.38
18.28
18.56
18.31
17.59
16.44
14.87
12.93
10.82
8.89
7.61
7.42
8.55
10.87
13.89
16.95
19.45
20.98
21.40
20.81
19.39
17.45
15.30
13.26
11.55
10.10
8.45
5.81
1.34
-5.49
-14.43
-24.40
-33.73
-40.60
-43.83
-43.13
-39.09
-32.78
-25.23
-17.19
-9.16
-1.67
4.66
9.16
11.31
11.09
8.99
5.84
2.40
-0.94
-4.26
-7.57
-10.84
-13.84
-16.30
-18.08
-19.28
-20.15
-20.98
-22.07
-23.09
-23.66
-23.51
-22.76
-21.89
-21.59
-22.44
-24.67
-28.50
-32.76
-36.26
-38.28
-38.86
-38.80
-39.13
-40.53
-43.14
-46.85
-48.55
-44.14
-29.82
-4.12
30.44
67.48
99.30
120.40
129.75
135.33
149.12
182.34
241.08
324.65
427.13
540.65
657.70
758.43
823.58
835.48
785.37
679.66
538.72
388.61
251.30
144.75
65.81
8.46
-32.07
-57.88
-69.78
-70.08
-64.19
-59.32
-62.71
-80.15
-110.35
-147.64
-184.44
-214.36
-235.04
-248.90
-261.51
-279.17
-307.10
-345.31
-390.22
-435.72
-474.03
-496.68
-496.00
-467.35
-411.77
-337.80
-258.61
-188.76
-139.17
-113.46
-108.03
-115.72
-130.95
-153.11
-186.05
-233.08
-292.14
-353.63
-402.40
-423.46
-408.07
-357.16
-281.08
-195.74
-117.77
-60.37
-30.46
-27.76
-45.21
-70.58
-89.44
-88.97
-61.90
-8.93
61.22
135.00
198.53
241.85
260.69
255.97
231.18
189.95
134.99
69.14
-2.62
-71.62
-126.32
-155.75
-153.90
-123.01
-72.99
-17.41
32.39
71.57
102.38
131.47
165.02
205.42
250.91
298.09
344.92
391.96
440.94
491.73
540.18
578.43
597.70
592.26
561.86
511.67
449.60
383.01
316.23
250.20
183.52
114.44
42.02
-33.55
-111.34
-190.28
-269.79
-349.93
-431.08
-512.74
-592.02
-662.57
-715.19
-740.26
-730.98
-686.15
-610.71
-513.99
-406.68
-298.13
-195.30
-102.99
-24.54
38.13
85.17
119.49
146.51
172.66
203.12
239.92
281.12
321.32
352.83
367.61
359.01
323.58
262.26
180.81
89.03
-1.28
-78.79
-134.85
-164.64
-167.21
-145.08
-103.83
-51.80
0.89
44.00
69.67
75.00
63.53
44.57
30.17
30.55
49.97
85.05
126.93
165.80
195.52
215.60
229.67
241.35
250.73
253.58
243.69
216.97
174.53
122.67
69.52
21.41
-19.31
-53.57
-83.19
-108.44
-126.55
-132.63
-121.85
-93.18
-50.75
-3.31
38.39
65.23
72.13
60.20
35.54
6.64
-20.76
-45.37
-69.76
-98.17
-134.08
-179.54
-232.55
-287.26
-334.19
-365.03
-374.83
-363.96
-337.58
-303.41
-269.66
-240.14
-213.38
-183.72
-147.91
-106.62
-63.72
-23.07
22.05
74.63
132.53
179.31
206.20
207.40
182.46
133.03
64.77
-13.61
-93.16
-163.82
-215.10
-236.27
-221.19
-169.21
-85.66
19.75
134.68
245.27
339.75
410.16
454.09
472.57
469.79
451.75
424.87
394.04
361.12
326.41
290.07
253.70
218.49
184.83
151.54
116.46
77.48
33.55
-14.14
-62.48
-107.50
-146.72
-180.11
-210.07
-239.90
-272.86
-311.20
-355.98
-407.24
-463.52
-521.29
-574.35
-614.79
-635.64
-634.17
-613.64
-582.07
-548.45
-518.27
-491.48
-463.59
-429.43
-386.85
-338.12
-288.25
-241.87
-200.71
-163.33
-126.86
-89.24
-50.39
-11.82
24.46
57.30
86.79
113.82
139.62
164.91
189.73
213.63
235.98
256.22
274.08
289.60
303.11
315.21
326.71
338.59
351.89
367.57
386.44
409.32
436.99
469.65
506.22
543.57
576.37
598.14
603.18
588.50
554.96
506.72
449.09
386.27
320.33
252.04
183.17
118.48
65.68
32.76
24.04
37.07
62.57
87.79
101.54
98.42
80.14
53.43
25.85
2.35
-16.36
-32.87
-50.75
-72.60
-99.51
-131.44
-167.55
-205.96
-243.16
-274.20
-294.23
-301.12
-297.52
-290.96
-291.71
-308.95
-346.87
-402.73
-467.58
-529.30
-576.50
-601.74
-602.93
-582.69
-546.62
-501.06
-451.49
-401.87
-354.71
-311.48
-273.21
-240.41
-212.81
-189.30
-168.12
-147.35
-125.55
-102.02
-76.78
-50.32
-23.21
4.29
32.46
62.27
95.12
132.40
174.72
221.23
269.19
314.37
352.01
378.30
391.68
393.25
386.29
375.17
363.80
354.67
348.45
344.25
340.37
335.19
327.87
318.56
308.12
297.35
286.43
274.70
260.99
244.10
223.47
199.22
171.71
141.06
107.09
69.89
30.43
-9.17
-46.10
-77.74
-102.47
-119.83
-130.37
-135.32
-136.20
-134.53
-131.38
-126.81
-119.61
-107.69
-89.03
-62.83
-30.19
5.96
41.78
73.35
97.43
112.03
116.71
113.01
104.62
96.75
94.82
102.58
120.52
145.23
170.27
188.15
192.80
181.44
155.14
118.01
75.43
32.10
-9.33
-48.64
-87.41
-128.08
-172.80
-222.54
-276.25
-330.52
-379.95
-418.22
-439.95
-442.54
-427.30
-399.02
-364.23
-328.92
-296.54
-267.43
-239.69
-211.03
-180.41
-148.73
-118.10
-90.11
-64.62
-39.44
-11.21
22.84
63.08
106.70
148.74
184.34
211.15
230.37
245.82
261.28
277.71
291.87
297.38
287.88
260.20
216.09
161.16
102.03
43.34
-13.01
-66.46
-115.48
-156.26
-183.78
-194.13
-186.39
-162.51
-125.45
-77.69
-21.09
41.06
101.89
150.43
174.30
164.81
121.61
54.64
-18.32
-77.45
-107.41
-101.80
-64.12
-5.30
60.86
121.90
169.65
201.03
217.32
222.37
220.53
215.00
207.12
196.74
183.05
165.69
145.19
122.82
99.68
75.58
49.13
18.23
-18.81
-62.64
-112.55
-166.73
-222.38
-275.58
-321.49
-354.74
-371.01
-368.31
-347.68
-312.78
-268.34
-218.42
-165.51
-110.98
-56.21
-3.69
43.27
81.87
111.50
134.30
153.80
172.46
189.79
202.44
206.56
201.39
191.30
184.81
190.52
212.05
245.11
278.65
299.13
296.17
266.24
213.32
147.18
80.78
27.40
-1.82
-0.49
30.76
83.57
143.99
196.86
231.10
243.10
236.38
218.06
194.05
166.31
133.38
93.58
48.26
3.02
-34.30
-57.15
-63.50
-57.00
-45.27
-36.78
-37.87
-51.28
-76.07
-108.46
-142.46
-170.36
-183.69
-175.39
-142.73
-89.54
-26.17
33.49
76.84
96.70
93.07
71.27
38.40
-0.22
-42.38
-87.94
-136.60
-185.87
-230.89
-265.99
-287.16
-293.91
-289.71
-280.18
-270.21
-261.80
-253.45
-242.06
-225.91
-206.64
-188.99
-178.26
-177.01
-183.46
-192.45
-198.57
-199.12
-195.15
-189.80
-185.45
-181.41
-173.72
-157.10
-127.55
-84.26
-30.15
29.13
86.62
135.12
168.27
181.83
175.03
151.44
118.16
83.41
53.29
29.61
9.95
-9.79
-31.95
-55.17
-74.78
-85.66
-85.29
-75.22
-60.00
-44.67
-32.33
-23.30
-16.02
-8.70
-0.51
8.12
15.88
21.11
22.09
17.35
5.82
-12.70
-36.89
-63.95
-90.29
-112.95
-130.68
-144.25
-155.42
-165.33
-173.28
-176.70
-172.34
-157.82
-132.97
-99.91
-62.24
-23.80
12.24
43.41
67.44
81.76
83.84
72.43
49.26
19.68
-8.38
-26.96
-31.16
-20.94
-0.90
22.10
41.82
55.16
62.75
67.87
74.36
84.87
100.10
118.81
138.71
157.39
173.30
185.99
195.89
203.62
209.13
211.36
208.46
198.90
182.64
161.74
139.83
120.77
107.02
98.62
93.60
89.25
83.63
76.14
67.03
56.10
41.96
22.44
-3.93
-36.11
-69.97
-99.26
-117.67
-120.91
-107.92
-80.85
-44.28
-4.34
32.36
59.77
73.76
73.33
61.09
42.52
24.18
11.51
7.12
10.35
17.98
25.82
30.51
30.75
27.58
23.48
20.68
19.50
17.92
12.67
1.36
-15.61
-34.72
-50.72
-59.15
-58.23
-49.42
-36.18
-21.95
-8.98
1.49
8.04
8.14
-0.77
-18.97
-42.10
-61.20
-66.09
-50.99
-18.81
18.53
45.35
50.23
32.46
3.30
-19.58
-21.13
3.50
47.27
95.56
134.07
155.23
160.34
157.21
154.87
158.94
169.45
182.33
192.60
197.57
198.13
197.33
197.66
198.57
195.67
182.67
154.71
111.37
57.74
3.06
-42.87
-73.24
-86.56
-86.30
-78.77
-70.27
-64.59
-61.96
-59.78
-54.54
-44.04
-28.93
-12.52
0.94
8.41
9.80
7.99
7.37
11.49
21.34
34.52
46.16
50.78
44.50
26.75
0.56
-28.73
-55.49
-75.90
-88.93
-95.97
-99.51
-101.67
-103.42
-104.67
-104.96
-104.03
-102.24
-100.18
-98.34
-96.75
-95.02
-92.49
-88.59
-83.20
-76.96
-71.25
-67.66
-67.14
-69.13
-71.51
-71.31
-65.96
-54.65
-38.68
-20.96
-4.64
8.00
16.24
20.50
21.43
19.27
13.57
3.80
-9.86
-26.04
-42.35
-56.15
-65.49
-69.76
-69.82
-67.45
-64.65
-62.94
-63.05
-64.94
-68.02
-71.52
-74.77
-77.46
-79.68
-81.64
-83.44
-84.74
-84.85
-82.81
-77.76
-69.21
-57.12
-42.06
-25.15
-7.97
7.70
20.38
29.36
34.78
37.44
38.22
37.74
36.29
34.09
31.63
29.68
28.79
28.79
28.65
27.00
23.10
17.61
12.51
10.12
11.80
17.06
23.82
29.47
32.22
31.72
28.86
24.92
20.77
16.61
12.33
7.81
3.13
-1.69
-6.90
-12.99
-20.22
-28.15
-35.47
-40.43
-41.61
-38.55
-31.88
-22.92
-13.03
-3.21
6.07
14.67
22.59
29.79
36.17
41.58
45.84
48.72
50.00
49.55
47.47
44.16
40.29
36.60
33.76
32.11
31.67
32.11
32.83
33.25
32.90
31.60
29.49
26.90
24.18
21.57
19.11
16.67
14.03
11.01
7.56
3.74
-0.29
-4.40
-8.64
-13.18
-18.31
-24.15
-30.60
-37.16
-43.11
-47.66
-50.15
-50.14
-47.46
-42.15
-34.43
-24.69
-13.59
-2.02
9.02
18.54
25.87
30.75
33.39
34.28
34.00
32.97
31.40
29.32
26.69
23.56
20.11
16.62
13.38
10.56
8.20
6.22
4.47
2.80
1.09
-0.74
-2.82
-5.25
-8.11
-11.33
-14.70
-17.77
-20.10
-21.42
-21.79
-21.51
-20.96
-20.29
-19.38
-17.96
-15.90
-13.40
-10.97
-9.26
-8.65
-9.16
-10.41
-11.79
-12.76
-12.92
-12.16
-10.59
-8.58
-6.67
-5.35
-4.95
-5.42
-6.35
-7.19
-7.50
-7.19
-6.50
-5.73
-4.90
-3.56
-0.94
3.55
9.89
17.32
24.67
30.94
35.86
39.88
43.71
47.64
51.25
53.53
53.50
50.90
46.37
41.12
36.27
32.41
29.37
26.62
23.63
20.19
16.35
12.31
8.11
3.61
-1.42
-7.13
-13.41
-19.75
-25.24
-28.77
-29.37
-26.54
-20.49
-12.18
-2.98
5.72
12.96
18.38
22.17
24.78
26.68
28.13
29.21
29.89
30.15
30.04
29.65
29.06
28.30
27.36
26.21
24.89
23.50
22.15
20.85
19.60
18.28
16.85
15.33
13.83
12.42
11.11
9.79
8.24
6.34
4.09
1.67
-0.71
-2.96
-5.16
-7.58
-10.46
-13.98
-18.11
-22.72
-27.56
-32.28
-36.44
-39.42
-40.61
-39.52
-36.07
-30.57
-23.72
-16.35
-9.17
-2.64
3.04
7.81
11.64
14.56
16.58
17.83
18.50
18.80
18.94
18.99
18.94
18.73
18.28
17.59
16.73
15.82
14.93
14.06
13.11
12.00
10.70
9.28
7.89
6.60
5.35
4.00
2.36
0.39
-1.81
-4.05
-6.15
-8.05
-9.80
-11.54
-13.37
-15.35
-17.47
-19.72
-22.05
-24.43
-26.70
-28.61
-29.81
-29.92
-28.59
-25.63
-20.97
-14.78
-7.41
0.62
8.65
15.97
21.98
26.32
28.93
30.14
30.45
30.41
30.31
30.14
29.59
28.30
26.00
22.69
18.54
13.87
9.04
4.44
0.45
-2.67
-4.92
-6.72
-8.84
-12.16
-17.31
-24.25
-32.28
-40.27
-47.08
-52.05
-55.12
-56.76
-57.76
-58.87
-60.68
-63.38
-66.70
-69.89
-71.91
-71.69
-68.54
-62.44
-54.01
-44.30
-34.38
-25.08
-16.78
-9.58
-3.45
1.59
5.53
8.36
10.25
11.46
12.27
12.87
13.28
13.47
13.42
13.23
13.10
13.21
13.70
14.54
15.64
16.95
18.45
20.05
21.53
22.46
22.34
20.92
18.31
15.05
11.80
8.97
6.53
3.98
0.77
-3.42
-8.38
-13.50
-17.96
-21.06
-22.35
-21.58
-18.69
-13.74
-6.97
1.14
9.85
18.29
25.73
31.78
36.55
40.45
43.91
47.09
49.76
51.47
51.90
51.19
49.98
49.20
49.56
51.12
53.28
55.04
55.54
54.52
52.51
50.58
49.84
50.96
53.73
57.02
59.02
57.84
52.17
41.77
27.68
11.73
-4.18
-18.97
-32.79
-46.80
-62.49
-80.99
-102.74
-127.42
-153.72
-179.06
-199.41
-209.75
-205.68
-185.54
-151.87
-111.29
-72.14
-41.18
-20.95
-9.59
-2.83
2.76
7.64
9.63
6.11
-3.30
-15.79
-26.76
-32.91
-34.57
-35.84
-42.22
-56.95
-78.49
-100.71
-115.73
-117.75
-105.39
-81.60
-51.59
-20.13
9.93
37.41
61.72
81.89
96.68
105.21
107.60
104.97
98.98
91.30
83.54
77.46
75.03
77.78
86.08
98.41
111.69
122.38
128.02
127.93
123.12
115.43
106.33
96.38
85.26
72.44
57.83
42.19
26.94
13.67
3.48
-3.50
-8.16
-11.90
-15.97
-20.93
-26.39
-31.49
-35.45
-38.17
-40.31
-42.91
-46.87
-52.38
-58.96
-65.76
-72.06
-77.63
-82.71
-87.76
-93.09
-98.64
-104.06
-108.88
-112.84
-116.04
-118.88
-121.76
-124.67
-127.05
-127.81
-125.63
-119.28
-107.92
-91.20
-69.28
-42.97
-13.80
16.03
43.85
67.18
84.40
95.32
101.12
103.93
106.00
109.03
113.78
120.12
127.36
134.55
140.86
145.81
149.45
152.24
154.82
157.57
160.28
162.17
162.15
159.34
153.51
145.06
134.81
123.59
111.94
100.14
88.37
76.84
65.76
55.17
44.86
34.52
24.08
13.95
5.05
-1.68
-5.69
-7.27
-7.44
-7.50
-8.42
-10.47
-13.20
-15.90
-18.05
-19.62
-20.99
-22.62
-24.72
-27.07
-29.18
-30.60
-31.13
-30.95
-30.48
-30.11
-30.06
-30.33
-30.73
-31.13
-31.54
-32.10
-33.06
-34.62
-36.72
-39.03
-41.03
-42.20
-42.28
-41.43
-40.10
-38.87
-38.16
-38.14
-38.70
-39.62
-40.54
-41.11
-40.88
-39.44
-36.47
-32.00
-26.41
-20.38
-14.59
-9.47
-5.11
-1.38
1.95
4.90
7.40
9.30
10.49
10.96
10.76
9.98
8.74
7.22
5.74
4.63
4.08
4.06
4.25
4.19
3.57
2.31
0.67
-1.02
-2.44
-3.44
-4.01
-4.24
-4.17
-3.87
-3.50
-3.29
-3.56
-4.48
-6.02
-7.95
-9.98
-12.05
-14.40
-17.53
-21.83
-27.22
-32.95
-37.74
-40.28
-39.70
-35.99
-29.96
-22.98
-16.47
-11.49
-8.48
-7.18
-6.80
-6.36
-5.08
-2.78
0.02
2.36
3.33
2.62
0.68
-1.46
-2.79
-2.84
-1.85
-0.50
0.57
1.12
1.38
1.76
2.44
3.19
3.39
2.31
-0.52
-5.13
-11.06
-17.49
-23.53
-28.47
-31.94
-34.04
-35.12
-35.63
-35.86
-35.76
-35.02
-33.15
-29.73
-24.51
-17.53
-9.11
0.21
9.70
18.56
26.03
31.55
34.87
36.15
35.80
34.27
31.92
28.92
25.26
20.92
16.07
11.09
6.49
2.69
-0.19
-2.41
-4.43
-6.69
-9.35
-12.24
-15.04
-17.60
-20.15
-23.23
-27.44
-33.06
-39.91
-47.37
-54.59
-60.61
-64.42
-65.05
-61.88
-54.99
-45.35
-34.57
-24.24
-15.24
-7.43
-0.04
7.63
15.72
23.84
31.83
40.19
50.03
62.16
76.21
90.59
103.41
113.96
123.37
134.02
147.96
165.56
185.20
204.28
220.50
232.65
240.12
241.94
236.36
221.62
197.74
167.91
138.25
115.76
105.46
108.31
121.26
139.33
158.44
176.99
195.71
216.00
238.26
261.22
282.67
300.65
314.38
324.11
330.29
332.75
330.59
322.78
308.88
289.51
266.07
240.10
212.84
185.14
157.61
130.84
105.10
80.19
55.30
29.40
1.69
-27.90
-58.63
-89.16
-118.25
-145.34
-170.94
-196.44
-223.59
-253.66
-286.81
-321.95
-357.35
-391.22
-422.66
-452.04
-480.76
-510.79
-544.28
-583.31
-629.47
-682.99
-741.61
-799.83
-849.46
-881.68
-890.07
-873.07
-834.56
-782.19
-724.30
-667.05
-613.20
-562.88
-515.46
-471.11
-431.08
-396.70
-368.02
-343.19
-318.98
-292.21
-261.13
-225.91
-188.42
-150.86
-114.62
-79.77
-45.29
-10.03
26.43
63.33
99.10
132.00
160.96
186.13
208.79
231.06
255.32
282.96
313.46
344.17
371.15
390.89
401.97
405.68
405.11
403.13
400.62
396.01
386.11
368.02
340.66
305.05
263.87
220.46
178.35
141.19
112.63
95.95
93.03
103.27
123.15
146.99
168.84
184.48
192.72
195.67
197.40
201.89
211.57
226.57
245.10
264.34
281.35
293.29
297.61
292.24
276.15
249.89
215.80
177.51
138.69
102.07
69.15
40.35
15.60
-5.59
-24.00
-40.58
-56.11
-70.59
-83.04
-91.94
-96.31
-96.68
-95.27
-94.97
-98.01
-104.94
-114.46
-124.16
-131.50
-134.49
-131.92
-123.38
-109.24
-90.76
-70.05
-49.63
-31.74
-17.82
-8.28
-2.82
-0.96
-2.30
-6.50
-12.85
-20.04
-26.37
-30.26
-30.99
-28.98
-25.63
-22.58
-21.06
-21.35
-22.82
-24.35
-24.87
-23.82
-21.40
-18.39
-15.77
-14.32
-14.27
-15.30
-16.71
-17.83
-18.33
-18.38
-18.53
-19.36
-21.06
-23.35
-25.58
-27.10
-27.65
-27.39
-26.69
-25.73
-24.24
-21.64
-17.33
-11.23
-3.90
3.65
10.42
15.86
20.02
23.40
26.50
29.50
32.22
34.24
35.19
34.92
33.55
31.44
28.99
26.62
24.67
23.32
22.59
22.32
22.23
21.98
21.31
20.06
18.19
15.75
12.80
9.44
5.86
2.35
-0.77
-3.29
-5.23
-6.91
-8.84
-11.45
-14.92
-19.07
-23.42
-27.32
-30.11
-31.21
-30.15
-26.72
-21.07
-13.74
-5.63
2.30
9.26
14.91
19.28
22.62
25.14
26.83
27.57
27.29
26.14
24.47
22.74
21.35
20.52
20.26
20.41
20.72
20.88
20.56
19.57
17.95
15.96
14.03
12.53
11.56
10.87
10.02
8.63
6.63
4.33
2.22
0.75
0.10
0.13
0.56
1.06
1.43
1.49
1.16
0.40
-0.59
-1.32
-0.99
1.29
6.20
13.87
23.70
34.57
45.19
54.71
62.97
70.53
78.20
86.47
95.02
102.71
107.93
109.27
106.08
98.66
88.11
75.77
62.89
50.33
38.68
28.40
19.93
13.68
9.85
8.29
8.43
9.38
10.21
10.18
8.98
6.72
3.76
0.59
-2.45
-5.15
-7.47
-9.42
-11.12
-12.80
-14.79
-17.51
-21.31
-26.32
-32.34
-38.82
-44.94
-49.79
-52.50
-52.42
-49.28
-43.29
-35.14
-25.88
-16.76
-8.96
-3.42
-0.73
-1.06
-4.14
-9.34
-15.77
-22.47
-28.59
-33.56
-37.18
-39.51
-40.76
-41.10
-40.60
-39.25
-37.13
-34.43
-31.61
-29.19
-27.66
-27.24
-27.80
-28.92
-30.06
-30.76
-30.80
-30.20
-29.20
-28.12
-27.34
-27.19
-27.88
-29.37
-31.32
-33.11
-34.05
-33.54
-31.31
-27.48
-22.37
-16.42
-10.03
-3.52
2.73
8.31
12.79
15.88
17.59
18.25
18.39
18.48
18.71
18.98
19.00
18.53
17.57
16.35
15.06
13.78
12.39
10.77
9.05
7.64
7.10
7.69
9.13
10.64
11.32
10.70
8.97
6.95
5.50
5.02
5.18
5.16
4.14
1.70
-2.02
-6.51
-11.24
-15.75
-19.71
-22.77
-24.56
-24.75
-23.28
-20.47
-16.95
-13.47
-10.62
-8.71
-7.83
-7.88
-8.69
-9.95
-11.32
-12.40
-12.90
-12.66
-11.71
-10.25
-8.54
-6.94
-5.81
-5.53
-6.45
-8.78
-12.56
-17.57
-23.45
-29.70
-35.86
-41.53
-46.47
-50.50
-53.53
-55.58
-56.79
-57.42
-57.78
-58.14
-58.52
-58.57
-57.63
-54.96
-50.02
-42.79
-33.76
-23.76
-13.68
-4.14
4.52
12.23
18.99
24.74
29.36
32.72
34.79
35.73
35.82
35.41
34.82
34.21
33.63
33.00
32.25
31.39
30.51
29.74
29.12
28.60
28.06
27.39
26.55
25.56
24.47
23.30
22.02
20.54
18.83
16.83
14.49
11.70
8.36
4.43
0.07
-4.34
-8.23
-11.03
-12.29
-11.83
-9.70
-6.21
-1.75
3.24
8.29
13.00
17.04
20.21
22.38
23.55
23.76
23.07
21.59
19.52
17.13
14.74
12.66
11.09
10.09
9.60
9.53
9.73
10.05
10.33
10.38
10.07
9.40
8.52
7.69
7.10
6.78
6.49
5.86
4.54
2.35
-0.65
-4.16
-7.79
-11.16
-13.84
-15.46
-15.61
-14.01
-10.60
-5.64
0.28
6.43
12.07
16.66
19.96
21.97
22.86
22.79
21.89
20.26
18.01
15.33
12.52
9.88
7.69
6.11
5.17
4.78
4.84
5.22
5.74
6.15
6.16
5.51
4.05
1.85
-0.83
-3.67
-6.40
-8.87
-11.12
-13.26
-15.47
-17.79
-20.14
-22.24
-23.65
-23.88
-22.55
-19.56
-15.11
-9.70
-3.94
1.62
6.59
10.72
13.81
15.70
16.24
15.45
13.60
11.27
9.16
7.94
7.98
9.25
11.33
13.58
15.33
16.07
15.48
13.47
10.15
5.87
1.12
-3.41
-6.96
-8.86
-8.73
-6.68
-3.34
0.25
2.89
3.61
1.81
-2.57
-9.10
-16.97
-25.01
-31.85
-36.03
-36.38
-32.35
-24.34
-13.76
-2.57
7.21
14.24
18.14
19.44
19.25
18.73
18.68
19.47
21.02
23.02
25.00
26.50
27.07
26.44
24.52
21.53
17.91
14.24
11.04
8.69
7.33
6.90
7.17
7.82
8.47
8.71
8.22
6.78
4.36
1.10
-2.72
-6.71
-10.42
-13.32
-14.94
-14.98
-13.58
-11.34
-9.32
-8.65
-10.16
-13.97
-19.44
-25.34
-30.20
-32.62
-31.60
-26.66
-17.95
-6.38
6.51
18.70
28.16
33.34
33.71
29.81
23.18
15.81
9.67
6.21
6.05
8.93
13.83
19.23
23.60
25.74
25.12
21.97
17.12
11.68
6.75
3.11
1.07
0.51
0.97
1.77
2.23
1.83
0.28
-2.36
-5.76
-9.42
-12.87
-15.73
-17.92
-19.56
-20.89
-22.13
-23.32
-24.28
-24.62
-23.90
-21.83
-18.29
-13.47
-7.72
-1.55
4.50
9.97
14.47
17.81
19.92
20.89
20.86
20.01
18.51
16.52
14.21
11.81
9.55
7.65
6.24
5.29
4.70
4.29
3.87
3.34
2.63
1.77
0.81
-0.19
-1.20
-2.22
-3.31
-4.53
-5.92
-7.48
-9.17
-10.87
-12.48
-13.86
-14.98
-15.85
-16.56
-17.26
-18.07
-19.10
-20.38
-21.84
-23.26
-24.27
-24.43
-23.28
-20.58
-16.33
-10.90
-4.84
1.17
6.62
11.17
14.74
17.35
19.07
19.95
20.03
19.41
18.27
16.90
15.60
14.63
14.08
13.87
13.82
13.72
13.42
12.92
12.32
11.74
11.25
10.84
10.41
9.83
9.02
7.96
6.72
5.41
4.11
2.87
1.66
0.44
-0.84
-2.21
-3.63
-5.05
-6.44
-7.84
-9.37
-11.17
-13.29
-15.59
-17.62
-18.77
-18.47
-16.41
-12.72
-7.92
-2.71
2.24
6.52
9.93
12.48
14.20
15.11
15.18
14.44
12.97
10.99
8.76
6.53
4.48
2.67
1.09
-0.38
-1.83
-3.27
-4.63
-5.82
-6.77
-7.54
-8.31
-9.23
-10.40
-11.72
-12.98
-13.90
-14.31
-14.20
-13.77
-13.29
-13.04
-13.17
-13.72
-14.67
-15.94
-17.50
-19.30
-21.30
-23.34
-25.19
-26.48
-26.75
-25.61
-22.81
-18.31
-12.30
-5.14
2.74
10.90
18.85
26.11
32.21
36.73
39.46
40.40
39.82
38.12
35.68
32.82
29.69
26.39
22.95
19.42
15.86
12.33
8.90
5.64
2.60
-0.21
-2.84
-5.28
-7.46
-9.18
-10.24
-10.60
-10.50
-10.49
-11.22
-13.20
-16.57
-21.02
-26.00
-30.84
-34.98
-37.99
-39.52
-39.39
-37.63
-34.67
-31.35
-28.65
-27.29
-27.30
-27.92
-27.88
-26.00
-21.71
-15.38
-8.07
-1.05
4.78
9.18
12.48
15.24
17.85
20.40
22.75
24.74
26.38
27.89
29.46
31.13
32.67
33.66
33.67
32.46
30.13
27.01
23.57
20.23
17.26
14.76
12.73
11.07
9.64
8.28
6.85
5.26
3.46
1.41
-0.92
-3.52
-6.38
-9.37
-12.30
-14.86
-16.79
-17.87
-18.02
-17.31
-15.85
-13.77
-11.16
-8.09
-4.68
-1.09
2.44
5.62
8.12
9.73
10.33
9.95
8.77
7.07
5.16
3.30
1.66
0.28
-0.89
-1.91
-2.82
-3.62
-4.27
-4.72
-5.01
-5.19
-5.41
-5.80
-6.45
-7.36
-8.44
-9.53
-10.45
-11.19
-11.85
-12.68
-13.91
-15.61
-17.57
-19.34
-20.40
-20.27
-18.75
-15.86
-11.80
-6.89
-1.47
4.09
9.37
13.94
17.47
19.80
21.01
21.33
21.02
20.26
19.11
17.56
15.62
13.36
10.97
8.59
6.33
4.21
2.21
0.32
-1.42
-2.95
-4.24
-5.39
-6.53
-7.82
-9.31
-10.98
-12.69
-14.32
-15.85
-17.39
-19.05
-20.86
-22.67
-24.12
-24.72
-24.04
-21.86
-18.20
-13.40
-7.95
-2.36
2.92
7.56
11.37
14.25
16.15
17.07
17.08
16.29
14.88
13.06
11.03
8.99
7.06
5.35
3.90
2.70
1.73
0.91
0.14
-0.64
-1.49
-2.43
-3.48
-4.64
-5.93
-7.37
-9.00
-10.86
-12.99
-15.37
-17.83
-20.03
-21.43
-21.48
-19.73
-16.06
-10.70
-4.26
2.51
8.88
14.28
18.40
21.12
22.51
22.70
21.90
20.35
18.33
16.09
13.84
11.72
9.77
7.93
6.13
4.31
2.46
0.64
-1.08
-2.65
-4.06
-5.39
-6.75
-8.25
-9.99
-12.05
-14.49
-17.31
-20.38
-23.38
-25.84
-27.20
-26.98
-24.98
-21.31
-16.36
-10.64
-4.63
1.31
6.94
12.06
16.45
19.85
22.09
23.13
23.09
22.24
20.85
19.15
17.27
15.30
13.32
11.49
9.98
8.95
8.41
8.20
7.99
7.33
5.89
3.52
0.36
-3.22
-6.82
-10.13
-13.06
-15.72
-18.33
-21.10
-24.11
-27.24
-30.18
-32.48
-33.60
-33.05
-30.47
-25.76
-19.15
-11.15
-2.48
6.07
13.80
20.19
24.92
27.90
29.23
29.13
27.97
26.13
24.05
22.12
20.64
19.70
19.22
18.96
18.65
18.17
17.50
16.77
16.08
15.41
14.64
13.54
11.95
9.83
7.27
4.46
1.61
-1.11
-3.60
-5.85
-7.93
-9.92
-11.90
-13.96
-16.11
-18.37
-20.64
-22.70
-24.15
-24.47
-23.17
-19.97
-14.96
-8.57
-1.48
5.61
12.18
17.84
22.32
25.39
26.87
26.73
25.23
22.88
20.33
18.16
16.67
15.88
15.53
15.32
15.02
14.48
13.65
12.54
11.21
9.75
8.35
7.22
6.51
6.24
6.19
5.95
5.10
3.34
0.61
-2.84
-6.56
-10.11
-13.16
-15.61
-17.53
-19.09
-20.46
-21.77
-23.13
-24.62
-26.25
-27.86
-29.09
-29.39
-28.21
-25.16
-20.26
-13.91
-6.81
0.27
6.70
12.09
16.29
19.29
21.15
21.93
21.75
20.77
19.24
17.45
15.60
13.81
12.10
10.48
8.97
7.69
6.75
6.23
6.05
6.00
5.84
5.33
4.37
3.04
1.48
-0.13
-1.67
-3.17
-4.71
-6.37
-8.22
-10.24
-12.32
-14.32
-16.13
-17.64
-18.84
-19.79
-20.61
-21.48
-22.54
-23.79
-25.03
-25.86
-25.78
-24.32
-21.26
-16.66
-10.91
-4.62
1.58
7.15
11.70
15.07
17.20
18.15
18.04
17.10
15.61
13.85
12.13
10.65
9.53
8.79
8.39
8.26
8.40
8.79
9.41
10.18
10.94
11.49
11.64
11.32
10.53
9.38
8.07
6.83
5.89
5.44
5.56
6.15
6.89
7.30
6.84
5.13
2.09
-1.97
-6.49
-10.73
-14.03
-15.88
-15.97
-14.18
-10.63
-5.65
0.17
6.08
11.28
15.18
17.50
18.27
17.79
16.41
14.41
11.95
9.11
5.99
2.75
-0.38
-3.22
-5.63
-7.56
-9.03
-10.09
-10.78
-11.16
-11.33
-11.39
-11.42
-11.52
-11.78
-12.22
-12.85
-13.64
-14.51
-15.39
-16.22
-17.00
-17.79
-18.69
-19.82
-21.19
-22.76
-24.38
-25.85
-26.91
-27.26
-26.64
-24.79
-21.62
-17.20
-11.81
-5.87
0.12
5.74
10.64
14.60
17.50
19.24
19.81
19.28
17.84
15.80
13.49
11.24
9.22
7.48
6.00
4.72
3.66
2.86
2.36
2.13
2.05
1.94
1.66
1.13
0.37
-0.55
-1.59
-2.76
-4.15
-5.77
-7.58
-9.42
-11.10
-12.49
-13.57
-14.48
-15.37
-16.44
-17.74
-19.20
-20.56
-21.47
-21.49
-20.25
-17.51
-13.28
-7.82
-1.61
4.79
10.82
16.06
20.20
23.11
24.73
25.07
24.22
22.32
19.60
16.40
13.11
10.19
8.02
6.77
6.37
6.49
6.66
6.51
5.80
4.57
2.98
1.24
-0.52
-2.31
-4.18
-6.15
-8.23
-10.33
-12.38
-14.28
-16.01
-17.57
-19.02
-20.50
-22.20
-24.27
-26.65
-28.99
-30.65
-30.85
-28.99
-24.77
-18.36
-10.33
-1.43
7.60
16.16
23.88
30.60
36.29
40.98
44.63
47.16
48.48
48.54
47.44
45.49
43.13
40.80
38.87
37.54
36.86
36.74
36.89
36.87
36.12
34.12
30.65
25.86
20.37
14.94
10.24
6.53
3.67
1.25
-1.12
-3.57
-5.97
-8.08
-9.82
-11.31
-12.81
-14.47
-16.07
-17.02
-16.50
-13.84
-8.78
-1.62
6.90
15.81
24.23
31.54
37.51
42.21
45.95
49.12
52.14
55.29
58.68
62.08
64.89
66.17
64.81
59.91
51.14
38.97
24.70
9.98
-3.61
-15.17
-24.61
-32.52
-39.67
-46.62
-53.42
-59.77
-65.31
-69.93
-73.84
-77.41
-80.84
-83.91
-85.97
-86.19
-83.92
-79.11
-72.41
-65.03
-58.32
-53.36
-50.62
-49.93
-50.65
-51.90
-52.84
-52.85
-51.58
-49.00
-45.36
-41.17
-37.06
-33.59
-31.01
-29.21
-27.72
-26.02
-23.78
-21.04
-18.12
-15.50
-13.55
-12.41
-12.00
-12.12
-12.48
-12.73
-12.40
-10.93
-7.87
-3.00
3.39
10.60
17.72
23.90
28.59
31.62
33.10
33.31
32.51
31.01
29.13
27.20
25.50
24.13
22.95
21.63
19.77
17.09
13.42
8.86
3.71
-1.55
-6.29
-9.84
-11.70
-11.74
-10.23
-7.85
-5.46
-3.77
-3.15
-3.61
-4.87
-6.56
-8.43
-10.34
-12.24
-14.06
-15.64
-16.79
-17.27
-16.97
-15.89
-14.19
-12.03
-9.53
-6.69
-3.42
0.35
4.55
8.96
13.24
17.10
20.38
23.03
25.12
26.67
27.61
27.79
27.12
25.57
23.29
20.52
17.53
14.55
11.72
9.11
6.68
4.38
2.12
-0.14
-2.30
-4.12
-5.27
-5.34
-4.07
-1.30
2.89
8.28
14.46
20.88
26.94
32.06
35.81
38.08
39.09
39.36
39.54
40.19
41.62
43.84
46.66
49.84
53.10
56.22
58.90
60.73
61.27
60.08
56.98
52.00
45.37
37.39
28.30
18.32
7.77
-2.89
-13.07
-22.24
-30.12
-36.79
-42.53
-47.57
-51.95
-55.38
-57.44
-57.78
-56.32
-53.31
-49.22
-44.54
-39.67
-34.77
-29.80
-24.61
-19.07
-13.18
-7.14
-1.22
4.28
9.21
13.45
16.95
19.60
21.29
21.90
21.47
20.16
18.17
15.73
12.98
10.01
6.96
4.00
1.36
-0.78
-2.36
-3.46
-4.23
-4.83
-5.32
-5.69
-5.91
-5.99
-5.99
-6.00
-6.13
-6.47
-7.05
-7.87
-8.84
-9.88
-10.87
-11.78
-12.63
-13.58
-14.79
-16.39
-18.35
-20.47
-22.39
-23.60
-23.65
-22.17
-19.04
-14.40
-8.66
-2.42
3.70
9.20
13.79
17.36
19.88
21.38
21.86
21.39
20.15
18.41
16.48
14.58
12.82
11.21
9.76
8.48
7.45
6.75
6.36
6.17
6.04
5.80
5.39
4.74
3.86
2.72
1.33
-0.32
-2.19
-4.19
-6.18
-8.03
-9.67
-11.13
-12.55
-14.17
-16.21
-18.73
-21.57
-24.32
-26.41
-27.28
-26.50
-23.92
-19.65
-14.06
-7.64
-0.93
5.57
11.42
16.31
20.00
22.38
23.43
23.25
22.05
20.15
17.88
15.57
13.46
11.68
10.27
9.20
8.44
7.96
7.72
7.68
7.73
7.74
7.58
7.13
6.39
5.40
4.22
2.92
1.48
-0.13
-1.97
-4.04
-6.28
-8.55
-10.75
-12.78
-14.60
-16.22
-17.66
-19.02
-20.42
-22.00
-23.83
-25.81
-27.64
-28.81
-28.80
-27.16
-23.69
-18.44
-11.76
-4.22
3.44
10.44
16.15
20.19
22.55
23.53
23.54
22.93
21.87
20.39
18.50
16.33
14.16
12.27
10.85
9.88
9.21
8.62
8.00
7.37
6.85
6.54
6.44
6.44
6.31
5.84
4.86
3.38
1.53
-0.48
-2.44
-4.19
-5.71
-7.08
-8.44
-9.97
-11.76
-13.89
-16.35
-19.04
-21.76
-24.18
-25.83
-26.18
-24.78
-21.40
-16.12
-9.40
-1.96
5.42
12.02
17.42
21.45
24.16
25.66
26.03
25.31
23.59
21.07
18.12
15.19
12.67
10.77
9.45
8.54
7.87
7.31
6.84
6.49
6.22
5.91
5.39
4.59
3.48
2.18
0.80
-0.53
-1.80
-3.01
-4.20
-5.43
-6.72
-8.07
-9.44
-10.80
-12.09
-13.33
-14.58
-15.97
-17.64
-19.65
-21.93
-24.20
-25.99
-26.77
-26.05
-23.50
-19.08
-13.02
-5.81
1.87
9.32
15.93
21.27
25.10
27.38
28.21
27.78
26.37
24.30
21.89
19.41
17.06
14.95
13.15
11.67
10.51
9.64
9.01
8.51
8.08
7.66
7.22
6.73
6.13
5.30
4.16
2.70
0.98
-0.85
-2.65
-4.33
-5.91
-7.45
-9.02
-10.64
-12.26
-13.84
-15.31
-16.72
-18.12
-19.57
-21.11
-22.75
-24.48
-26.25
-27.99
-29.45
-30.26
-29.89
-27.88
-23.98
-18.32
-11.44
-4.07
3.02
9.29
14.44
18.39
21.16
22.78
23.32
22.87
21.64
19.94
18.10
16.37
14.91
13.71
12.73
11.88
11.12
10.45
9.90
9.49
9.23
9.04
8.84
8.52
8.06
7.46
6.78
6.05
5.27
4.38
3.29
1.94
0.34
-1.44
-3.28
-5.07
-6.75
-8.32
-9.84
-11.35
-12.84
-14.26
-15.54
-16.64
-17.65
-18.72
-19.96
-21.35
-22.63
-23.28
-22.75
-20.59
-16.66
-11.24
-4.88
1.70
7.90
13.24
17.47
20.48
22.23
22.80
22.33
21.05
19.27
17.31
15.40
13.65
12.06
10.57
9.12
7.74
6.50
5.54
4.99
4.86
5.09
5.44
5.64
5.47
4.79
3.66
2.25
0.77
-0.61
-1.87
-3.06
-4.30
-5.69
-7.24
-8.89
-10.55
-12.14
-13.63
-15.07
-16.54
-18.11
-19.84
-21.70
-23.64
-25.52
-27.14
-28.20
-28.36
-27.27
-24.71
-20.60
-15.11
-8.60
-1.61
5.25
11.39
16.33
19.81
21.81
22.46
22.06
20.91
19.33
17.57
15.82
14.25
12.93
11.84
10.89
10.00
9.09
8.22
7.47
6.94
6.64
6.47
6.28
5.89
5.21
4.20
2.88
1.29
-0.52
-2.50
-4.56
-6.62
-8.58
-10.38
-12.00
-13.46
-14.82
-16.14
-17.51
-19.02
-20.72
-22.66
-24.80
-27.02
-29.08
-30.67
-31.39
-30.86
-28.76
-24.96
-19.62
-13.10
-5.94
1.26
7.94
13.69
18.25
21.49
23.45
24.24
24.04
23.03
21.41
19.36
17.10
14.85
12.82
11.14
9.84
8.86
8.08
7.38
6.72
6.13
5.62
5.17
4.69
4.09
3.25
2.14
0.79
-0.68
-2.17
-3.58
-4.88
-6.13
-7.45
-8.93
-10.57
-12.28
-13.89
-15.27
-16.43
-17.56
-18.91
-20.62
-22.54
-24.25
-25.11
-24.51
-22.12
-17.95
-12.37
-5.92
0.81
7.34
13.28
18.36
22.31
24.91
26.04
25.73
24.24
21.99
19.44
16.99
14.86
13.13
11.76
10.67
9.80
9.14
8.66
8.34
8.10
7.84
7.48
6.92
6.11
5.04
3.71
2.11
0.25
-1.84
-4.10
-6.38
-8.53
-10.43
-12.09
-13.67
-15.47
-17.80
-20.90
-24.73
-28.90
-32.70
-35.21
-35.52
-33.00
-27.46
-19.27
-9.33
1.19
11.02
19.05
24.52
27.10
26.95
24.70
21.28
17.71
14.88
13.27
12.92
13.51
14.50
15.41
15.90
15.88
15.38
14.50
13.36
12.05
10.65
9.18
7.65
6.02
4.17
2.04
-0.35
-2.89
-5.41
-7.71
-9.69
-11.36
-12.84
-14.33
-16.01
-18.01
-20.41
-23.16
-26.11
-28.99
-31.45
-33.04
-33.34
-31.99
-28.81
-23.84
-17.35
-9.84
-1.93
5.74
12.65
18.38
22.75
25.67
27.18
27.43
26.58
24.87
22.55
19.90
17.18
14.59
12.30
10.37
8.85
7.70
6.89
6.39
6.12
6.00
5.86
5.52
4.78
3.53
1.80
-0.28
-2.48
-4.63
-6.62
-8.46
-10.21
-11.97
-13.81
-15.75
-17.80
-19.98
-22.24
-24.53
-26.65
-28.30
-29.09
-28.60
-26.54
-22.79
-17.43
-10.83
-3.46
4.10
11.32
17.75
23.07
27.11
29.84
31.36
31.82
31.43
30.36
28.77
26.82
24.67
22.54
20.62
19.04
17.80
16.77
15.74
14.54
13.12
11.54
9.97
8.56
7.33
6.19
4.94
3.39
1.38
-1.13
-4.06
-7.23
-10.43
-13.46
-16.21
-18.66
-20.88
-22.96
-25.03
-27.15
-29.30
-31.42
-33.29
-34.56
-34.79
-33.51
-30.38
-25.35
-18.71
-11.05
-3.12
4.38
10.87
16.01
19.65
21.77
22.51
22.12
20.94
19.34
17.67
16.15
14.87
13.79
12.87
12.11
11.58
11.41
11.65
12.26
13.01
13.60
13.78
13.39
12.47
11.15
9.62
7.99
6.28
4.42
2.36
0.10
-2.27
-4.65
-6.95
-9.16
-11.36
-13.67
-16.15
-18.83
-21.66
-24.59
-27.48
-30.14
-32.24
-33.24
-32.58
-29.85
-24.96
-18.26
-10.48
-2.51
4.87
11.13
16.07
19.70
22.10
23.34
23.47
22.63
21.06
19.13
17.22
15.63
14.47
13.67
13.04
12.41
11.73
11.06
10.51
10.13
9.87
9.53
8.91
7.90
6.50
4.84
3.10
1.44
-0.07
-1.42
-2.64
-3.80
-4.96
-6.20
-7.57
-9.11
-10.82
-12.64
-14.49
-16.29
-18.03
-19.80
-21.72
-23.95
-26.49
-29.09
-31.25
-32.32
-31.65
-28.88
-23.99
-17.38
-9.67
-1.62
6.07
12.85
18.30
22.18
24.45
25.27
24.96
23.91
22.47
20.90
19.32
17.82
16.47
15.37
14.63
14.27
14.23
14.36
14.50
14.55
14.47
14.28
13.96
13.45
12.67
11.55
10.11
8.43
6.63
4.75
2.78
0.62
-1.78
-4.36
-6.98
-9.47
-11.76
-13.91
-16.08
-18.49
-21.22
-24.13
-26.90
-29.06
-30.14
-29.74
-27.69
-23.97
-18.78
-12.50
-5.63
1.24
7.52
12.71
16.45
18.66
19.50
19.27
18.35
17.02
15.46
13.74
11.96
10.25
8.77
7.66
6.95
6.50
6.03
5.26
4.03
2.38
0.59
-0.91
-1.68
-1.38
0.04
2.35
5.04
7.43
8.85
8.75
6.91
3.42
-1.30
-6.62
-11.86
-16.47
-20.10
-22.69
-24.38
-25.44
-26.07
-26.35
-26.09
-24.92
-22.38
-18.13
-12.11
-4.65
3.51
11.41
18.12
22.89
25.35
25.45
23.44
19.76
14.97
9.69
4.67
0.67
-1.66
-1.86
0.08
3.74
8.33
12.89
16.54
18.69
19.19
18.22
16.18
13.50
10.53
7.48
4.52
1.77
-0.67
-2.69
-4.31
-5.62
-6.80
-8.05
-9.50
-11.21
-13.17
-15.32
-17.63
-20.10
-22.72
-25.42
-28.05
-30.30
-31.80
-32.10
-30.82
-27.78
-23.04
-16.92
-10.01
-2.94
3.68
9.42
14.05
17.47
19.73
20.86
20.97
20.19
18.70
16.71
14.48
12.20
10.08
8.21
6.67
5.46
4.58
3.98
3.58
3.29
2.99
2.54
1.84
0.83
-0.45
-1.94
-3.55
-5.20
-6.86
-8.53
-10.19
-11.81
-13.36
-14.83
-16.28
-17.85
-19.70
-21.93
-24.46
-26.99
-29.00
-29.90
-29.15
-26.46
-21.84
-15.64
-8.42
-0.86
6.40
12.84
18.13
22.11
24.80
26.32
26.82
26.42
25.23
23.38
21.10
18.71
16.54
14.83
13.63
12.83
12.21
11.53
10.65
9.53
8.22
6.83
5.47
4.27
3.31
2.58
1.95
1.22
0.15
-1.37
-3.29
-5.45
-7.65
-9.76
-11.78
-13.84
-16.07
-18.54
-21.20
-23.92
-26.41
-28.32
-29.22
-28.68
-26.33
-22.04
-15.99
-8.71
-0.92
6.61
13.23
18.54
22.39
24.79
25.85
25.73
24.59
22.65
20.19
17.55
15.06
12.99
11.47
10.49
9.95
9.70
9.61
9.65
9.78
9.94
9.99
9.73
8.96
7.54
5.43
2.75
-0.32
-3.59
-6.88
-10.07
-13.06
-15.80
-18.28
-20.58
-22.82
-25.13
-27.47
-29.60
-31.01
-31.06
-29.18
-25.11
-19.04
-11.53
-3.45
4.34
11.15
16.57
20.45
22.87
23.99
23.99
23.06
21.38
19.21
16.82
14.55
12.62
11.16
10.15
9.47
8.98
8.60
8.28
8.04
7.82
7.52
6.96
6.02
4.65
2.89
0.87
-1.28
-3.46
-5.60
-7.67
-9.72
-11.80
-13.97
-16.28
-18.74
-21.30
-23.91
-26.48
-28.81
-30.57
-31.27
-30.39
-27.50
-22.50
-15.69
-7.76
0.40
7.95
14.30
19.17
22.57
24.66
25.68
25.78
25.11
23.79
21.98
19.87
17.71
15.72
14.06
12.82
12.00
11.57
11.41
11.39
11.32
11.01
10.33
9.25
7.82
6.19
4.48
2.77
1.05
-0.75
-2.67
-4.71
-6.82
-8.95
-11.03
-13.01
-14.83
-16.48
-17.99
-19.46
-21.07
-22.97
-25.21
-27.57
-29.58
-30.55
-29.81
-26.91
-21.80
-14.86
-6.80
1.55
9.41
16.15
21.45
25.16
27.33
28.11
27.72
26.43
24.55
22.37
20.18
18.16
16.46
15.11
14.11
13.47
13.17
13.20
13.49
13.89
14.21
14.25
13.87
12.97
11.59
9.81
7.76
5.57
3.33
1.08
-1.22
-3.58
-5.97
-8.32
-10.51
-12.44
-14.11
-15.61
-17.17
-18.97
-21.12
-23.54
-25.94
-27.85
-28.67
-27.82
-24.92
-19.91
-13.14
-5.31
2.68
10.01
16.06
20.55
23.45
24.89
25.06
24.20
22.54
20.35
17.94
15.63
13.65
12.10
10.98
10.18
9.59
9.13
8.77
8.53
8.37
8.22
7.95
7.42
6.52
5.22
3.59
1.79
0.00
-1.62
-3.04
-4.27
-5.45
-6.71
-8.15
-9.81
-11.60
-13.40
-15.10
-16.60
-17.89
-19.10
-20.40
-21.98
-23.92
-26.14
-28.35
-30.11
-30.89
-30.23
-27.85
-23.71
-18.05
-11.33
-4.16
2.87
9.26
14.70
19.00
22.08
23.85
24.28
23.43
21.53
18.96
16.21
13.70
11.68
10.18
9.11
8.38
7.93
7.78
7.91
8.22
8.51
8.54
8.14
7.25
5.99
4.55
3.12
1.81
0.61
-0.60
-1.96
-3.57
-5.41
-7.36
-9.26
-10.99
-12.45
-13.68
-14.74
-15.72
-16.78
-18.08
-19.76
-21.90
-24.35
-26.76
-28.56
-29.12
-27.93
-24.78
-19.80
-13.43
-6.28
0.97
7.74
13.60
18.28
21.66
23.75
24.62
24.36
23.15
21.21
18.91
16.65
14.85
13.72
13.26
13.23
13.26
13.06
12.50
11.62
10.55
9.43
8.32
7.20
6.03
4.77
3.40
1.92
0.34
-1.33
-3.08
-4.89
-6.77
-8.77
-10.92
-13.29
-15.86
-18.55
-21.24
-23.73
-25.79
-27.11
-27.36
-26.19
-23.38
-18.96
-13.23
-6.72
-0.10
5.99
11.08
14.90
17.35
18.48
18.46
17.53
15.96
14.00
11.87
9.74
7.75
6.03
4.68
3.74
3.19
2.88
2.65
2.34
1.92
1.47
1.08
0.80
0.57
0.17
-0.66
-2.10
-4.17
-6.67
-9.30
-11.76
-13.87
-15.59
-17.02
-18.31
-19.56
-20.86
-22.17
-23.38
-24.33
-24.71
-24.24
-22.63
-19.76
-15.77
-10.98
-5.84
-0.70
4.23
8.92
13.34
17.33
20.51
22.36
22.43
20.53
16.89
12.12
7.05
2.49
-0.96
-3.02
-3.68
-3.11
-1.57
0.63
3.15
5.62
7.62
8.75
8.72
7.38
4.88
1.55
-2.13
-5.63
-8.57
-10.76
-12.18
-13.04
-13.64
-14.30
-15.27
-16.62
-18.17
-19.52
-20.09
-19.32
-16.78
-12.39
-6.40
0.58
7.79
14.46
19.99
24.07
26.62
27.75
27.67
26.57
24.69
22.28
19.71
17.31
15.40
14.08
13.24
12.58
11.79
10.66
9.21
7.64
6.20
5.08
4.22
3.39
2.28
0.70
-1.37
-3.70
-5.99
-8.05
-9.86
-11.64
-13.69
-16.25
-19.39
-22.99
-26.79
-30.48
-33.65
-35.88
-36.64
-35.47
-32.09
-26.54
-19.29
-11.07
-2.72
5.04
11.70
17.03
20.94
23.48
24.72
24.81
24.00
22.58
20.86
19.08
17.38
15.80
14.35
13.05
11.99
11.23
10.73
10.37
9.98
9.44
8.73
7.94
7.19
6.48
5.69
4.57
2.88
0.56
-2.26
-5.30
-8.30
-11.08
-13.64
-16.03
-18.34
-20.63
-22.91
-25.22
-27.54
-29.74
-31.52
-32.41
-31.87
-29.46
-25.05
-18.86
-11.46
-3.53
4.31
11.67
18.32
24.12
28.89
32.36
34.18
34.07
31.94
28.00
22.76
17.01
11.65
7.61
5.64
6.08
8.82
13.29
18.57
23.70
27.90
30.69
31.87
31.36
29.08
24.97
19.02
11.47
2.84
-6.04
-14.27
-20.99
-25.63
-27.97
-28.19
-26.79
-24.47
-21.99
-20.04
-19.07
-19.19
-20.13
-21.27
-21.90
-21.32
-19.10
-15.15
-9.76
-3.51
2.91
8.85
13.80
17.48
19.81
20.85
20.79
19.86
18.34
16.56
14.77
13.20
11.98
11.13
10.61
10.36
10.30
10.41
10.60
10.78
10.78
10.46
9.74
8.66
7.35
6.00
4.75
3.68
2.73
1.76
0.64
-0.75
-2.41
-4.27
-6.20
-8.11
-10.01
-12.05
-14.40
-17.28
-20.77
-24.70
-28.69
-32.09
-34.13
-34.10
-31.56
-26.48
-19.33
-10.97
-2.44
5.27
11.38
15.53
17.68
18.07
17.09
15.21
12.85
10.45
8.34
6.82
6.05
6.04
6.65
7.59
8.57
9.35
9.82
10.00
10.02
9.95
9.83
9.57
9.04
8.14
6.88
5.37
3.82
2.42
1.31
0.45
-0.27
-1.08
-2.13
-3.48
-5.07
-6.73
-8.33
-9.78
-11.10
-12.36
-13.65
-15.04
-16.54
-18.12
-19.60
-20.73
-21.16
-20.50
-18.46
-14.90
-9.96
-4.01
2.37
8.56
13.97
18.20
21.04
22.53
22.89
22.36
21.20
19.60
17.68
15.57
13.41
11.34
9.52
8.03
6.91
6.13
5.63
5.32
5.10
4.88
4.59
4.18
3.60
2.84
1.89
0.72
-0.64
-2.15
-3.71
-5.20
-6.55
-7.77
-8.97
-10.28
-11.78
-13.53
-15.52
-17.78
-20.34
-23.16
-26.02
-28.42
-29.70
-29.27
-26.83
-22.58
-17.14
-11.34
-5.97
-1.58
1.58
3.52
4.50
5.00
5.62
6.92
9.20
12.31
15.63
18.33
19.64
19.18
17.01
13.57
9.49
5.40
1.86
-0.67
-1.86
-1.66
-0.30
1.72
3.72
5.09
5.47
4.79
3.21
1.01
-1.53
-4.13
-6.53
-8.47
-9.73
-10.20
-9.94
-9.22
-8.41
-7.96
-8.27
-9.60
-12.09
-15.68
-20.11
-24.87
-29.25
-32.41
-33.55
-32.09
-27.85
-21.14
-12.69
-3.56
5.16
12.53
17.98
21.33
22.72
22.53
21.19
19.12
16.74
14.40
12.40
10.93
9.99
9.45
9.05
8.55
7.81
6.84
5.78
4.80
4.07
3.63
3.47
3.46
3.47
3.33
2.91
2.08
0.80
-0.93
-3.02
-5.33
-7.71
-9.98
-12.00
-13.67
-14.94
-15.88
-16.66
-17.52
-18.69
-20.32
-22.29
-24.24
-25.63
-25.85
-24.44
-21.21
-16.27
-10.00
-2.98
4.16
10.81
16.46
20.78
23.59
24.86
24.72
23.38
21.16
18.45
15.66
13.13
11.07
9.53
8.37
7.41
6.47
5.52
4.64
4.02
3.79
3.91
4.18
4.27
3.85
2.71
0.85
-1.51
-4.06
-6.47
-8.57
-10.31
-11.82
-13.31
-15.00
-17.02
-19.36
-21.90
-24.34
-26.28
-27.24
-26.82
-24.67
-20.68
-14.99
-8.04
-0.50
6.90
13.47
18.72
22.44
24.64
25.50
25.27
24.20
22.52
20.43
18.10
15.71
13.43
11.38
9.68
8.37
7.47
6.93
6.67
6.59
6.58
6.54
6.30
5.73
4.68
3.10
1.04
-1.35
-3.89
-6.40
-8.78
-10.99
-13.06
-15.03
-17.00
-19.06
-21.26
-23.68
-26.30
-28.99
-31.48
-33.32
-33.95
-32.81
-29.52
-23.99
-16.61
-8.09
0.59
8.47
14.86
19.46
22.36
23.89
24.41
24.23
23.45
22.14
20.34
18.21
16.00
13.98
12.34
11.15
10.33
9.78
9.36
8.98
8.56
8.07
7.43
6.62
5.63
4.45
3.13
1.67
0.07
-1.67
-3.53
-5.50
-7.59
-9.77
-12.02
-14.27
-16.44
-18.49
-20.42
-22.27
-24.03
-25.56
-26.50
-26.35
-24.60
-20.94
-15.41
-8.43
-0.71
6.97
13.92
19.65
23.98
26.91
28.55
29.03
28.46
26.94
24.63
21.81
18.83
16.09
13.84
12.20
11.08
10.31
9.74
9.29
8.96
8.80
8.78
8.74
8.46
7.68
6.23
4.11
1.50
-1.33
-4.09
-6.62
-8.91
-11.10
-13.38
-15.91
-18.72
-21.69
-24.54
-26.83
-28.05
-27.67
-25.33
-20.91
-14.65
-7.13
0.82
8.35
14.79
19.76
23.19
25.20
25.94
25.51
24.03
21.66
18.71
15.62
12.84
10.66
9.18
8.24
7.59
7.02
6.41
5.77
5.16
4.64
4.16
3.61
2.79
1.53
-0.26
-2.52
-5.13
-7.86
-10.54
-13.07
-15.45
-17.73
-20.01
-22.40
-24.95
-27.61
-30.18
-32.24
-33.17
-32.35
-29.31
-23.96
-16.68
-8.21
0.52
8.63
15.50
20.79
24.44
26.56
27.30
26.84
25.38
23.13
20.40
17.52
14.82
12.57
10.90
9.83
9.22
8.88
8.63
8.32
7.87
7.26
6.46
5.44
4.14
2.51
0.53
-1.77
-4.28
-6.87
-9.38
-11.69
-13.73
-15.53
-17.19
-18.89
-20.83
-23.11
-25.71
-28.42
-30.81
-32.33
-32.39
-30.49
-26.39
-20.16
-12.29
-3.55
5.10
12.79
18.87
23.06
25.45
26.37
26.22
25.38
24.09
22.52
20.79
19.04
17.39
15.95
14.72
13.68
12.78
12.05
11.56
11.39
11.51
11.79
12.00
11.87
11.24
10.08
8.51
6.68
4.75
2.81
0.89
-0.99
-2.82
-4.60
-6.35
-8.09
-9.83
-11.60
-13.36
-15.14
-16.97
-18.93
-21.08
-23.33
-25.37
-26.64
-26.47
-24.31
-19.96
-13.67
-6.08
1.96
9.62
16.24
21.43
25.02
26.99
27.44
26.57
24.71
22.22
19.53
16.97
14.79
13.13
12.02
11.39
11.12
11.05
11.06
11.10
11.18
11.34
11.55
11.70
11.52
10.79
9.35
7.28
4.83
2.33
0.07
-1.89
-3.64
-5.39
-7.29
-9.37
-11.57
-13.73
-15.71
-17.42
-18.85
-20.07
-21.22
-22.49
-24.06
-26.06
-28.47
-31.09
-33.54
-35.27
-35.68
-34.25
-30.68
-25.02
-17.67
-9.32
-0.80
7.11
13.79
18.93
22.43
24.42
25.11
24.77
23.65
22.02
20.13
18.21
16.48
15.04
13.90
13.00
12.22
11.47
10.73
10.08
9.59
9.34
9.31
9.36
9.29
8.89
8.00
6.62
4.88
3.01
1.28
-0.19
-1.43
-2.64
-4.08
-5.92
-8.15
-10.60
-12.96
-15.01
-16.61
-17.79
-18.69
-19.50
-20.38
-21.48
-22.90
-24.59
-26.33
-27.70
-28.11
-26.97
-23.86
-18.70
-11.84
-3.99
3.96
11.13
16.93
21.09
23.66
24.87
25.02
24.32
22.95
21.10
18.98
16.90
15.14
13.89
13.16
12.76
12.45
12.01
11.38
10.65
10.01
9.62
9.48
9.39
9.06
8.23
6.80
4.95
2.99
1.23
-0.21
-1.45
-2.76
-4.39
-6.41
-8.68
-10.86
-12.69
-14.01
-14.91
-15.67
-16.69
-18.34
-20.88
-24.30
-28.21
-31.90
-34.38
-34.71
-32.28
-27.08
-19.66
-11.00
-2.09
6.37
14.13
21.32
28.10
34.38
39.70
43.40
44.91
44.29
42.39
40.80
41.27
44.98
52.01
61.22
70.75
78.78
84.35
87.65
89.78
92.04
95.07
98.34
100.18
98.25
90.33
75.01
52.24
23.55
-7.92
-37.79
-61.46
-75.47
-78.85
-73.81
-65.30
-59.23
-60.14
-69.23
-83.85
-98.64
-107.94
-108.18
-99.12
-83.62
-65.90
-49.70
-36.88
-27.36
-19.93
-13.40
-7.44
-2.56
0.45
1.38
0.93
0.57
1.78
5.29
10.68
16.60
21.44
24.15
24.69
24.03
23.53
24.19
26.09
28.35
29.55
28.51
24.81
18.96
12.07
5.29
-0.68
-5.71
-10.06
-13.98
-17.50
-20.39
-22.37
-23.33
-23.41
-22.99
-22.49
-22.24
-22.45
-23.22
-24.58
-26.52
-28.99
-31.89
-35.08
-38.31
-41.20
-43.24
-43.85
-42.49
-38.92
-33.30
-26.31
-18.90
-11.97
-6.10
-1.37
2.53
6.00
9.25
12.11
14.20
15.19
15.06
14.17
13.14
12.48
12.41
12.70
12.94
12.77
12.06
10.91
9.54
8.10
6.63
5.09
3.42
1.58
-0.48
-2.86
-5.66
-8.96
-12.65
-16.52
-20.21
-23.43
-26.03
-28.07
-29.72
-31.18
-32.62
-34.14
-35.71
-37.18
-38.28
-38.59
-37.65
-35.07
-30.68
-24.69
-17.60
-10.13
-3.03
3.15
8.11
11.85
14.49
16.18
17.04
17.17
16.74
15.98
15.20
14.66
14.50
14.69
15.06
15.39
15.48
15.23
14.65
13.82
12.83
11.78
10.72
9.62
8.33
6.71
4.65
2.17
-0.62
-3.53
-6.43
-9.23
-11.93
-14.49
-16.84
-18.95
-20.88
-22.80
-24.91
-27.30
-29.78
-31.83
-32.72
-31.78
-28.64
-23.33
-16.30
-8.25
0.04
7.86
14.67
20.13
24.13
26.74
28.13
28.53
28.10
26.97
25.26
23.10
20.70
18.30
16.11
14.29
12.85
11.75
10.88
10.14
9.40
8.57
7.57
6.35
4.90
3.27
1.51
-0.32
-2.14
-3.87
-5.46
-6.88
-8.13
-9.25
-10.31
-11.41
-12.64
-14.11
-15.89
-17.94
-20.13
-22.15
-23.55
-23.85
-22.66
-19.80
-15.35
-9.64
-3.11
3.75
10.51
16.77
22.18
26.40
29.15
30.31
29.93
28.31
25.86
23.03
20.17
17.54
15.26
13.42
11.99
10.92
10.09
9.34
8.53
7.63
6.72
6.00
5.59
5.52
5.62
5.60
5.19
4.23
2.80
1.16
-0.38
-1.60
-2.49
-3.21
-4.06
-5.28
-7.02
-9.24
-11.73
-14.15
-16.06
-16.92
-16.22
-13.56
-8.82
-2.27
5.41
13.27
20.30
25.72
29.14
30.59
30.42
29.07
26.96
24.35
21.42
18.31
15.15
12.10
9.29
6.76
4.53
2.61
1.10
0.11
-0.25
0.01
0.73
1.66
2.53
3.10
3.29
3.08
2.55
1.76
0.77
-0.35
-1.56
-2.85
-4.23
-5.80
-7.69
-10.07
-13.02
-16.45
-20.07
-23.34
-25.60
-26.27
-25.08
-22.07
-17.65
-12.39
-6.88
-1.61
3.11
7.08
10.19
12.42
13.76
14.26
14.01
13.13
11.85
10.42
9.14
8.27
7.99
8.36
9.29
10.65
12.25
13.86
15.30
16.38
16.96
16.96
16.37
15.20
13.53
11.48
9.20
6.87
4.66
2.63
0.76
-1.09
-3.07
-5.31
-7.81
-10.53
-13.38
-16.27
-19.10
-21.72
-23.84
-25.01
-24.71
-22.52
-18.27
-12.19
-4.86
2.89
10.22
16.47
21.21
24.33
25.89
26.09
25.20
23.48
21.23
18.69
16.13
13.79
11.85
10.41
9.47
8.86
8.37
7.77
6.90
5.74
4.35
2.81
1.14
-0.68
-2.69
-4.90
-7.25
-9.61
-11.88
-13.95
-15.79
-17.37
-18.71
-19.83
-20.73
-21.43
-21.91
-22.20
-22.37
-22.49
-22.61
-22.64
-22.31
-21.19
-18.84
-14.99
-9.67
-3.26
3.59
10.21
16.02
20.64
23.95
26.01
27.03
27.26
26.98
26.39
25.58
24.55
23.23
21.60
19.68
17.60
15.49
13.47
11.61
9.87
8.24
6.68
5.18
3.70
2.15
0.43
-1.53
-3.71
-5.97
-8.13
-10.07
-11.80
-13.47
-15.24
-17.22
-19.33
-21.33
-22.95
-24.01
-24.54
-24.74
-24.89
-25.17
-25.57
-25.85
-25.64
-24.51
-22.17
-18.49
-13.58
-7.73
-1.37
4.99
10.84
15.75
19.43
21.77
22.90
23.11
22.77
22.23
21.68
21.11
20.36
19.20
17.47
15.16
12.46
9.73
7.38
5.75
5.01
5.10
5.75
6.60
7.29
7.57
7.29
6.47
5.15
3.44
1.45
-0.69
-2.83
-4.85
-6.65
-8.23
-9.60
-10.87
-12.11
-13.39
-14.74
-16.16
-17.63
-19.06
-20.29
-21.00
-20.81
-19.34
-16.42
-12.16
-6.99
-1.54
3.61
7.99
11.41
13.83
15.30
15.87
15.60
14.58
12.98
11.05
9.09
7.30
5.82
4.65
3.74
3.05
2.53
2.15
1.88
1.68
1.51
1.35
1.16
0.93
0.60
0.10
-0.66
-1.74
-3.11
-4.69
-6.34
-7.92
-9.35
-10.58
-11.61
-12.47
-13.21
-13.96
-14.89
-16.13
-17.75
-19.62
-21.40
-22.63
-22.81
-21.54
-18.66
-14.31
-8.84
-2.80
3.24
8.74
13.30
16.67
18.80
19.76
19.73
18.93
17.58
15.86
13.90
11.83
9.82
8.05
6.67
5.74
5.22
4.95
4.77
4.58
4.33
4.03
3.65
3.11
2.29
1.11
-0.37
-2.05
-3.76
-5.40
-6.92
-8.37
-9.78
-11.16
-12.47
-13.71
-14.87
-15.99
-17.13
-18.34
-19.69
-21.19
-22.78
-24.24
-25.20
-25.19
-23.76
-20.63
-15.88
-9.89
-3.30
3.22
9.06
13.83
17.36
19.61
20.70
20.80
20.14
18.98
17.59
16.23
15.04
14.06
13.25
12.49
11.72
10.94
10.23
9.70
9.42
9.39
9.49
9.54
9.38
8.84
7.88
6.49
4.73
2.72
0.57
-1.57
-3.59
-5.41
-7.02
-8.47
-9.84
-11.27
-12.85
-14.67
-16.70
-18.81
-20.70
-22.01
-22.32
-21.34
-18.89
-15.02
-9.98
-4.22
1.73
7.31
12.05
15.62
17.97
19.21
19.59
19.32
18.58
17.46
16.01
14.32
12.54
10.83
9.29
7.97
6.87
5.98
5.33
4.92
4.76
4.76
4.77
4.60
4.07
3.11
1.74
0.05
-1.78
-3.60
-5.28
-6.79
-8.16
-9.47
-10.87
-12.48
-14.36
-16.49
-18.80
-21.17
-23.46
-25.50
-27.07
-27.92
-27.77
-26.38
-23.63
-19.57
-14.40
-8.46
-2.16
4.11
10.03
15.25
19.46
22.35
23.69
23.43
21.77
19.14
16.10
13.24
11.04
9.85
9.79
10.79
12.53
14.45
15.91
16.31
15.33
13.01
9.72
6.06
2.59
-0.32
-2.52
-4.11
-5.30
-6.31
-7.31
-8.38
-9.54
-10.77
-12.01
-13.25
-14.46
-15.66
-16.86
-18.11
-19.51
-21.10
-22.92
-24.85
-26.57
-27.57
-27.24
-25.04
-20.77
-14.63
-7.24
0.49
7.66
13.55
17.81
20.38
21.49
21.46
20.62
19.25
17.56
15.74
13.90
12.16
10.61
9.37
8.46
7.87
7.47
7.14
6.77
6.34
5.94
5.64
5.46
5.27
4.82
3.89
2.39
0.45
-1.63
-3.53
-5.07
-6.28
-7.35
-8.51
-9.85
-11.37
-12.99
-14.64
-16.34
-18.10
-19.82
-21.19
-21.77
-21.10
-18.91
-15.22
-10.33
-4.69
1.20
6.92
12.09
16.46
19.81
22.02
23.07
23.06
22.17
20.64
18.74
16.72
14.84
13.26
12.09
11.31
10.84
10.58
10.46
10.45
10.54
10.70
10.84
10.89
10.77
10.47
10.02
9.47
8.83
8.04
7.01
5.56
3.61
1.14
-1.69
-4.63
-7.40
-9.84
-11.96
-13.99
-16.20
-18.79
-21.74
-24.75
-27.30
-28.85
-28.95
-27.34
-24.02
-19.19
-13.21
-6.53
0.30
6.74
12.21
16.28
18.67
19.33
18.44
16.46
14.00
11.78
10.47
10.45
11.75
13.88
16.02
17.26
16.96
15.01
11.90
8.50
5.71
4.15
3.93
4.70
5.90
7.00
7.67
7.90
7.85
7.70
7.51
7.12
6.13
4.11
0.70
-4.14
-10.15
-16.70
-22.96
-28.11
-31.51
-32.88
-32.36
-30.40
-27.62
-24.54
-21.40
-18.16
-14.57
-10.42
-5.65
-0.44
4.83
9.74
13.92
17.08
19.00
19.61
18.93
17.13
14.55
11.60
8.73
6.31
4.58
3.57
3.20
3.25
3.46
3.60
3.50
3.10
2.44
1.64
0.79
-0.00
-0.76
-1.52
-2.32
-3.17
-4.04
-4.88
-5.69
-6.49
-7.31
-8.14
-8.91
-9.48
-9.76
-9.73
-9.54
-9.43
-9.69
-10.50
-11.92
-13.83
-15.92
-17.79
-18.94
-18.92
-17.41
-14.33
-9.90
-4.58
1.01
6.30
10.87
14.56
17.44
19.65
21.32
22.36
22.57
21.68
19.56
16.37
12.57
8.78
5.60
3.44
2.43
2.52
3.49
5.09
7.03
8.91
10.27
10.66
9.77
7.58
4.35
0.60
-3.04
-6.08
-8.18
-9.26
-9.49
-9.15
-8.64
-8.37
-8.69
-9.82
-11.82
-14.50
-17.47
-20.22
-22.20
-22.94
-22.12
-19.58
-15.33
-9.54
-2.62
4.82
11.95
17.87
21.87
23.56
23.07
20.88
17.69
14.16
10.84
8.15
6.44
5.94
6.66
8.28
10.08
11.22
10.98
9.13
6.01
2.40
-0.88
-3.23
-4.51
-4.93
-4.89
-4.78
-4.83
-5.17
-5.85
-6.91
-8.37
-10.18
-12.23
-14.35
-16.39
-18.32
-20.16
-21.94
-23.54
-24.63
-24.76
-23.48
-20.55
-16.05
-10.37
-4.10
2.16
7.90
12.74
16.43
18.83
19.91
19.76
18.55
16.60
14.28
12.00
10.14
8.95
8.48
8.58
8.92
9.10
8.84
8.07
6.95
5.76
4.76
4.07
3.63
3.31
2.96
2.44
1.63
0.42
-1.30
-3.53
-6.09
-8.67
-10.93
-12.71
-14.15
-15.64
-17.59
-20.15
-23.00
-25.39
-26.38
-25.25
-21.74
-16.12
-9.10
-1.60
5.52
11.55
16.10
19.06
20.57
20.93
20.43
19.27
17.45
14.88
11.51
7.44
3.04
-1.21
-4.74
-7.14
-8.13
-7.66
-5.86
-3.08
0.18
3.29
5.63
6.75
6.48
4.93
2.48
-0.44
-3.40
-6.09
-8.41
-10.41
-12.31
-14.36
-16.66
-19.06
-21.09
-22.08
-21.36
-18.52
-13.61
-7.11
0.17
7.35
13.65
18.54
21.76
23.34
23.49
22.54
20.82
18.61
16.12
13.51
10.99
8.76
6.99
5.78
5.05
4.63
4.31
3.94
3.46
2.91
2.34
1.75
1.08
0.23
-0.89
-2.36
-4.20
-6.36
-8.71
-11.09
-13.31
-15.25
-16.93
-18.50
-20.20
-22.20
-24.50
-26.87
-28.92
-30.15
-30.08
-28.38
-24.87
-19.62
-12.98
-5.50
2.09
9.09
14.93
19.25
21.96
23.15
23.07
22.01
20.33
18.38
16.47
14.82
13.50
12.45
11.58
10.81
10.10
9.54
9.21
9.21
9.61
10.33
11.18
11.89
12.12
11.61
10.26
8.18
5.69
3.21
1.11
-0.37
-1.19
-1.50
-1.56
-1.65
-2.02
-2.89
-4.39
-6.66
-9.75
-13.62
-18.01
-22.47
-26.35
-28.90
-29.46
-27.63
-23.42
-17.22
-9.81
-2.08
5.07
11.01
15.40
18.23
19.68
20.06
19.68
18.81
17.66
16.38
15.06
13.76
12.51
11.30
10.20
9.33
8.86
8.97
9.72
11.04
12.73
14.54
16.16
17.38
18.01
17.97
17.23
15.85
13.98
11.82
9.48
7.00
4.24
1.03
-2.72
-6.91
-11.20
-15.13
-18.34
-20.69
-22.35
-23.67
-25.02
-26.58
-28.28
-29.78
-30.61
-30.24
-28.24
-24.37
-18.72
-11.67
-3.94
3.64
10.24
15.27
18.49
20.04
20.26
19.63
18.52
17.19
15.73
14.21
12.68
11.26
10.12
9.33
8.89
8.68
8.55
8.39
8.15
7.88
7.62
7.37
7.06
6.56
5.76
4.57
3.01
1.16
-0.82
-2.76
-4.47
-5.84
-6.84
-7.59
-8.28
-9.11
-10.16
-11.42
-12.76
-14.02
-15.13
-16.11
-17.07
-18.16
-19.49
-21.12
-22.97
-24.87
-26.48
-27.32
-26.87
-24.65
-20.48
-14.59
-7.58
-0.27
6.55
12.33
16.88
20.25
22.59
24.04
24.67
24.52
23.70
22.39
20.83
19.23
17.72
16.31
14.99
13.72
12.51
11.41
10.41
9.49
8.52
7.33
5.72
3.57
0.90
-2.12
-5.20
-7.96
-10.09
-11.37
-11.74
-11.28
-10.18
-8.69
-7.16
-6.00
-5.62
-6.36
-8.31
-11.25
-14.67
-17.90
-20.34
-21.57
-21.45
-20.04
-17.44
-13.82
-9.34
-4.28
0.91
5.69
9.51
12.00
13.12
13.19
12.80
12.56
12.95
14.08
15.71
17.32
18.35
18.43
17.47
15.72
13.63
11.67
10.20
9.39
9.26
9.66
10.40
11.19
11.79
11.94
11.47
10.30
8.47
6.10
3.40
0.61
-1.96
-4.08
-5.64
-6.74
-7.60
-8.54
-9.72
-11.12
-12.52
-13.61
-14.21
-14.35
-14.24
-14.23
-14.56
-15.34
-16.40
-17.40
-17.91
-17.50
-15.91
-13.03
-8.96
-3.97
1.54
7.14
12.38
16.85
20.25
22.39
23.22
22.86
21.54
19.56
17.16
14.53
11.76
8.94
6.18
3.62
1.43
-0.29
-1.55
-2.50
-3.31
-4.12
-4.96
-5.75
-6.39
-6.80
-7.03
-7.24
-7.59
-8.24
-9.22
-10.45
-11.79
-13.08
-14.24
-15.24
-16.10
-16.90
-17.70
-18.59
-19.64
-20.91
-22.48
-24.33
-26.36
-28.34
-29.96
-30.83
-30.65
-29.19
-26.42
-22.45
-17.56
-12.11
-6.45
-0.89
4.31
8.94
12.84
15.90
18.06
19.36
19.92
19.88
19.40
18.61
17.60
16.48
15.41
14.52
13.95
13.72
13.75
13.88
13.93
13.76
13.31
12.58
11.61
10.44
9.12
7.63
6.00
4.24
2.37
0.43
-1.55
-3.57
-5.63
-7.74
-9.87
-12.02
-14.14
-16.22
-18.26
-20.18
-21.83
-22.90
-23.00
-21.76
-18.94
-14.59
-9.03
-2.79
3.49
9.24
14.03
17.60
19.85
20.80
20.63
19.58
17.95
16.07
14.19
12.45
10.89
9.49
8.24
7.19
6.39
5.84
5.49
5.22
4.90
4.44
3.84
3.18
2.52
1.86
1.12
0.20
-0.97
-2.37
-3.92
-5.48
-6.98
-8.43
-9.89
-11.40
-12.98
-14.63
-16.34
-18.11
-19.99
-21.92
-23.70
-24.95
-25.15
-23.84
-20.79
-16.06
-10.03
-3.29
3.53
9.83
15.15
19.18
21.78
22.95
22.86
21.81
20.12
18.11
16.03
14.01
12.16
10.50
9.09
7.92
6.98
6.24
5.63
5.13
4.71
4.36
4.03
3.67
3.18
2.47
1.51
0.32
-1.02
-2.40
-3.73
-4.99
-6.19
-7.45
-8.85
-10.43
-12.16
-13.92
-15.60
-17.17
-18.71
-20.39
-22.33
-24.49
-26.55
-28.01
-28.24
-26.75
-23.33
-18.15
-11.71
-4.73
2.08
8.16
13.16
16.93
19.47
20.88
21.26
20.74
19.51
17.79
15.84
13.85
11.99
10.35
8.99
7.99
7.40
7.27
7.52
8.00
8.50
8.82
8.85
8.58
8.09
7.44
6.68
5.81
4.76
3.49
1.97
0.22
-1.68
-3.60
-5.40
-6.98
-8.32
-9.51
-10.72
-12.15
-13.94
-16.10
-18.45
-20.63
-22.11
-22.33
-20.81
-17.32
-12.02
-5.43
1.70
8.58
14.59
19.39
22.87
25.10
26.18
26.20
25.24
23.42
20.98
18.23
15.48
12.98
10.85
9.05
7.52
6.20
5.10
4.24
3.64
3.27
3.03
2.82
2.53
2.08
1.38
0.37
-0.98
-2.66
-4.56
-6.49
-8.30
-9.86
-11.19
-12.42
-13.70
-15.18
-16.91
-18.86
-20.95
-23.02
-24.82
-26.06
-26.35
-25.32
-22.68
-18.36
-12.57
-5.80
1.30
8.02
13.77
18.18
21.13
22.72
23.15
22.67
21.51
19.84
17.86
15.75
13.69
11.81
10.20
8.86
7.82
7.09
6.74
6.77
7.08
7.45
7.60
7.28
6.44
5.15
3.62
2.01
0.37
-1.32
-3.13
-5.05
-7.00
-8.87
-10.61
-12.24
-13.85
-15.47
-17.14
-18.88
-20.69
-22.58
-24.44
-26.03
-26.91
-26.61
-24.71
-21.02
-15.68
-9.12
-1.98
5.04
11.31
16.36
19.95
22.04
22.80
22.48
21.34
19.60
17.51
15.26
13.09
11.22
9.77
8.75
8.06
7.56
7.12
6.69
6.30
5.97
5.72
5.47
5.09
4.44
3.44
2.10
0.55
-1.04
-2.53
-3.89
-5.19
-6.59
-8.15
-9.86
-11.58
-13.14
-14.46
-15.54
-16.48
-17.43
-18.53
-19.82
-21.31
-22.85
-24.21
-24.97
-24.64
-22.75
-19.05
-13.66
-7.05
0.04
6.85
12.80
17.53
20.92
22.98
23.78
23.44
22.12
20.08
17.67
15.26
13.22
11.75
10.90
10.56
10.53
10.64
10.74
10.78
10.74
10.62
10.38
10.02
9.52
8.86
8.03
6.99
5.74
4.32
2.76
1.15
-0.47
-2.13
-3.86
-5.73
-7.74
-9.80
-11.80
-13.68
-15.46
-17.20
-18.98
-20.69
-22.05
-22.64
-22.00
-19.79
-15.94
-10.66
-4.40
2.20
8.47
13.88
18.02
20.70
21.93
21.82
20.63
18.69
16.39
14.09
12.08
10.52
9.44
8.75
8.35
8.17
8.14
8.23
8.36
8.42
8.27
7.82
7.06
6.04
4.83
3.52
2.18
0.87
-0.39
-1.61
-2.85
-4.19
-5.64
-7.16
-8.66
-10.04
-11.27
-12.41
-13.57
-14.87
-16.41
-18.22
-20.23
-22.30
-24.18
-25.53
-25.97
-25.10
-22.65
-18.57
-13.06
-6.60
0.15
6.52
11.92
16.03
18.79
20.35
20.96
20.85
20.16
18.98
17.40
15.58
13.72
12.06
10.71
9.69
8.94
8.38
7.99
7.76
7.65
7.56
7.36
6.91
6.17
5.17
4.01
2.78
1.54
0.30
-0.94
-2.19
-3.42
-4.68
-6.04
-7.61
-9.41
-11.38
-13.31
-15.00
-16.32
-17.33
-18.27
-19.43
-21.02
-23.07
-25.34
-27.41
-28.73
-28.79
-27.22
-23.89
-18.93
-12.71
-5.80
1.14
7.51
12.81
16.80
19.41
20.76
21.09
20.67
19.76
18.58
17.28
15.96
14.67
13.46
12.35
11.41
10.70
10.31
10.23
10.41
10.73
10.99
11.05
10.83
10.28
9.39
8.15
6.58
4.71
2.66
0.59
-1.30
-2.90
-4.18
-5.22
-6.15
-7.10
-8.18
-9.49
-11.06
-12.87
-14.76
-16.47
-17.60
-17.77
-16.65
-14.10
-10.19
-5.21
0.39
6.06
11.24
15.48
18.51
20.26
20.85
20.43
19.18
17.25
14.78
12.03
9.33
7.02
5.33
4.26
3.63
3.18
2.75
2.31
2.00
1.89
1.99
2.09
1.95
1.41
0.46
-0.81
-2.23
-3.73
-5.32
-7.06
-8.94
-10.85
-12.62
-14.13
-15.36
-16.42
-17.53
-18.86
-20.41
-22.03
-23.34
-23.90
-23.30
-21.26
-17.75
-12.96
-7.26
-1.14
4.92
10.49
15.22
18.90
21.44
22.86
23.27
22.82
21.63
19.79
17.39
14.51
11.33
8.08
4.98
2.26
0.05
-1.63
-2.81
-3.60
-4.16
-4.62
-5.14
-5.79
-6.56
-7.36
-8.11
-8.72
-9.21
-9.62
-10.01
-10.37
-10.63
-10.69
-10.52
-10.18
-9.86
-9.79
-10.17
-11.01
-12.21
-13.51
-14.61
-15.20
-14.92
-13.46
-10.67
-6.61
-1.66
3.57
8.36
12.12
14.55
15.66
15.73
15.08
14.00
12.64
11.06
9.29
7.42
5.56
3.86
2.46
1.38
0.59
-0.01
-0.52
-0.98
-1.38
-1.68
-1.82
-1.83
-1.78
-1.82
-2.12
-2.79
-3.90
-5.39
-7.11
-8.88
-10.50
-11.83
-12.88
-13.77
-14.70
-15.87
-17.40
-19.23
-21.12
-22.67
-23.43
-23.02
-21.22
-18.03
-13.65
-8.40
-2.62
3.35
9.19
14.58
19.13
22.47
24.30
24.56
23.46
21.43
19.01
16.76
15.14
14.51
15.07
16.80
19.32
21.89
23.55
23.43
21.20
17.20
12.37
7.87
4.50
2.42
1.20
0.15
-1.26
-3.14
-5.24
-7.21
-8.82
-10.15
-11.45
-12.94
-14.68
-16.55
-18.38
-20.09
-21.72
-23.40
-25.18
-26.93
-28.26
-28.62
-27.51
-24.58
-19.85
-13.66
-6.60
0.59
7.25
12.86
17.17
20.12
21.79
22.39
22.12
21.22
19.90
18.36
16.79
15.37
14.20
13.32
12.69
12.24
11.91
11.65
11.43
11.23
11.00
10.66
10.16
9.41
8.38
7.10
5.61
3.99
2.30
0.59
-1.19
-3.11
-5.25
-7.65
-10.25
-12.86
-15.27
-17.29
-18.90
-20.20
-21.47
-22.96
-24.79
-26.85
-28.79
-30.06
-30.05
-28.31
-24.67
-19.32
-12.77
-5.67
1.27
7.53
12.73
16.67
19.26
20.51
20.54
19.61
18.07
16.31
14.61
13.12
11.81
10.62
9.50
8.49
7.72
7.26
7.10
7.15
7.23
7.19
6.99
6.66
6.20
5.60
4.79
3.70
2.35
0.88
-0.50
-1.65
-2.56
-3.35
-4.23
-5.32
-6.57
-7.84
-8.93
-9.74
-10.36
-11.04
-12.03
-13.45
-15.19
-16.87
-17.92
-17.73
-15.85
-12.09
-6.66
-0.10
6.85
13.50
19.28
23.89
27.20
29.21
29.98
29.62
28.34
26.40
24.15
21.90
19.89
18.24
16.98
16.03
15.32
14.67
13.93
12.91
11.46
9.52
7.15
4.49
1.79
-0.74
-2.95
-4.78
-6.28
-7.58
-8.82
-10.12
-11.50
-12.94
-14.33
-15.65
-16.93
-18.26
-19.71
-21.28
-22.80
-24.00
-24.53
-24.10
-22.51
-19.72
-15.84
-11.09
-5.83
-0.44
4.69
9.23
13.02
15.99
18.17
19.58
20.27
20.29
19.74
18.77
17.57
16.28
14.99
13.73
12.53
11.43
10.51
9.85
9.49
9.37
9.33
9.17
8.67
7.71
6.28
4.51
2.61
0.81
-0.75
-2.08
-3.31
-4.62
-6.16
-7.95
-9.90
-11.88
-13.75
-15.42
-16.89
-18.21
-19.44
-20.67
-21.96
-23.29
-24.53
-25.44
-25.68
-24.88
-22.79
-19.35
-14.71
-9.26
-3.47
2.18
7.25
11.46
14.61
16.65
17.58
17.52
16.62
15.09
13.18
11.12
9.13
7.39
6.03
5.12
4.65
4.53
4.64
4.81
4.91
4.87
4.67
4.29
3.75
3.05
2.20
1.24
0.24
-0.71
-1.56
-2.33
-3.12
-4.05
-5.22
-6.64
-8.21
-9.73
-11.01
-11.95
-12.63
-13.21
-13.96
-15.06
-16.52
-18.09
-19.35
-19.81
-19.05
-16.86
-13.26
-8.54
-3.08
2.63
8.14
13.08
17.13
20.08
21.81
22.33
21.75
20.32
18.34
16.10
13.86
11.76
9.92
8.34
7.05
6.03
5.26
4.63
4.03
3.32
2.45
1.45
0.41
-0.55
-1.43
-2.31
-3.37
-4.73
-6.47
-8.51
-10.66
-12.75
-14.70
-16.53
-18.35
-20.23
-22.17
-24.08
-25.88
-27.44
-28.68
-29.50
-29.65
-28.81
-26.65
-22.93
-17.76
-11.54
-4.94
1.34
6.77
11.09
14.26
16.42
17.68
18.14
17.86
17.01
15.81
14.54
13.43
12.59
11.96
11.42
10.86
10.24
9.63
9.14
8.84
8.71
8.67
8.59
8.39
8.04
7.54
6.91
6.10
5.04
3.68
2.01
0.09
-1.94
-3.87
-5.54
-6.87
-7.90
-8.78
-9.73
-10.97
-12.59
-14.50
-16.41
-17.89
-18.48
-17.84
-15.77
-12.33
-7.69
-2.22
3.63
9.35
14.38
18.23
20.63
21.52
21.15
19.88
18.12
16.16
14.16
12.15
10.14
8.17
6.32
4.69
3.37
2.37
1.66
1.15
0.77
0.47
0.23
-0.01
-0.30
-0.74
-1.45
-2.46
-3.75
-5.22
-6.73
-8.16
-9.41
-10.47
-11.36
-12.14
-12.87
-13.60
-14.32
-15.05
-15.82
-16.68
-17.64
-18.67
-19.64
-20.29
-20.29
-19.26
-16.86
-12.93
-7.50
-0.90
6.30
13.37
19.59
24.41
27.55
29.09
29.28
28.44
26.87
24.78
22.37
19.89
17.57
15.59
14.02
12.80
11.82
11.04
10.47
10.17
10.14
10.27
10.35
10.16
9.60
8.72
7.64
6.49
5.28
3.90
2.23
0.22
-2.04
-4.38
-6.62
-8.69
-10.67
-12.71
-15.03
-17.75
-20.84
-24.14
-27.36
-30.06
-31.79
-32.12
-30.73
-27.55
-22.76
-16.82
-10.35
-3.96
1.85
6.85
11.05
14.60
17.64
20.16
21.94
22.67
22.11
20.29
17.59
14.57
11.75
9.36
7.18
4.68
1.28
-3.31
-8.94
-14.99
-20.69
-25.38
-28.70
-30.55
-30.95
-29.86
-27.24
-23.17
-17.97
-12.18
-6.29
-0.43
5.74
12.78
20.94
29.87
38.68
46.45
52.74
57.84
62.38
66.77
70.72
73.50
74.60
74.36
74.13
75.66
80.16
87.62
96.73
105.62
112.61
116.79
118.08
116.88
113.65
108.77
102.38
94.42
84.46
71.63
54.77
32.93
6.14
-24.05
-54.69
-82.29
-104.00
-118.52
-126.38
-129.37
-129.70
-129.17
-128.92
-129.36
-130.36
-131.18
-130.52
-126.64
-117.94
-103.71
-84.72
-63.01
-41.12
-21.04
-3.58
11.39
24.06
34.03
40.33
42.35
40.85
38.34
38.29
43.56
54.86
70.36
86.46
99.21
105.72
104.88
97.43
85.40
71.28
56.94
42.55
25.90
2.81
-31.45
-79.70
-140.78
-208.80
-274.24
-326.71
-358.05
-364.53
-347.70
-313.51
-270.43
-227.14
-190.52
-164.40
-149.09
-142.17
-140.03
-139.38
-138.44
-137.33
-137.46
-140.43
-146.51
-153.70
-157.64
-152.97
-135.45
-103.97
-61.16
-12.28
37.09
83.36
125.75
165.53
204.23
242.08
277.65
308.54
332.77
349.78
360.30
365.51
366.08
361.91
352.38
337.04
316.16
291.00
263.62
236.49
211.90
191.39
175.42
163.28
153.40
143.77
132.73
119.54
104.76
90.06
77.72
69.68
66.91
69.13
75.03
82.79
90.46
96.17
98.17
94.92
85.34
68.97
46.33
18.67
-12.47
-45.74
-80.59
-117.53
-158.21
-204.57
-257.52
-315.24
-372.42
-420.83
-451.64
-458.44
-439.57
-398.51
-341.96
-276.79
-207.46
-135.71
-62.12
11.43
80.55
139.21
182.19
207.76
218.58
220.36
219.19
218.93
220.22
221.14
