1502435962.00
64.000000
-0.00
-0.00
-0.00
-0.00
-0.00
-0.00
-0.00
-0.00
-0.00
-0.00
0.00
0.01
0.01
-0.00
-0.03
-0.05
-0.05
0.00
0.13
0.36
0.66
1.01
1.37
1.72
2.06
2.40
2.79
3.24
3.80
4.42
5.06
5.66
6.20
6.68
7.15
7.68
8.31
9.14
10.09
11.04
11.88
12.56
13.14
13.76
14.65
15.96
17.91
20.32
22.90
25.38
27.58
29.57
31.68
34.32
37.81
42.54
48.15
54.10
59.83
64.97
69.58
74.14
79.34
85.71
93.76
103.00
112.62
121.73
129.77
136.75
143.30
150.75
157.77
166.64
177.95
191.79
206.97
220.57
228.25
225.36
208.53
176.87
132.76
80.05
23.07
-34.94
-92.44
-149.16
-205.23
-260.37
-313.74
-363.87
-409.83
-450.91
-486.50
-515.74
-537.23
-549.22
-549.96
-538.37
-514.21
-478.67
-433.88
-382.45
-327.02
-269.84
-212.63
-156.66
-102.95
-52.37
-5.90
35.58
71.43
101.35
125.50
144.38
158.69
169.15
176.37
180.75
182.57
182.07
179.51
175.23
169.65
163.18
156.15
148.81
141.30
133.69
126.02
118.33
110.69
103.16
95.80
88.68
81.83
75.25
68.95
62.95
57.25
51.86
46.78
42.03
37.59
33.45
29.61
26.07
22.81
19.83
17.11
14.67
12.48
10.54
8.83
7.35
6.07
4.97
4.05
3.27
2.62
2.09
1.65
1.30
1.01
0.79
0.61
0.48
0.38
0.30
0.25
0.22
0.20
0.19
0.20
0.22
0.24
0.27
0.30
0.35
0.41
0.48
0.52
0.54
0.52
0.46
0.40
0.35
0.35
0.40
0.48
0.58
0.65
0.69
0.70
0.71
0.75
0.86
1.04
1.28
1.51
1.69
1.79
1.82
1.85
1.96
2.23
2.69
3.25
3.79
4.15
4.26
4.16
4.00
4.02
4.39
5.17
6.20
7.18
7.78
7.85
7.44
6.90
6.64
7.03
8.14
9.67
11.05
11.68
11.15
9.45
6.95
4.21
1.60
-0.80
-3.28
-6.35
-10.54
-16.09
-23.10
-31.50
-40.88
-50.15
-57.42
-60.33
-56.95
-46.80
-31.44
-14.09
1.61
12.95
19.08
20.92
20.21
18.48
16.47
14.21
11.62
8.95
6.81
5.81
6.12
7.32
8.60
9.17
8.52
6.74
4.33
2.09
0.69
0.46
1.22
2.35
3.13
3.05
2.09
0.61
-0.77
-1.57
-1.67
-1.39
-1.21
-1.54
-2.49
-3.79
-4.93
-5.40
-4.91
-3.36
-0.91
2.16
5.48
8.70
11.56
13.92
15.71
16.98
17.80
18.24
18.30
18.12
17.53
16.66
15.71
14.78
13.85
12.83
11.58
10.01
8.17
6.20
4.28
2.52
0.96
-0.45
-1.79
-3.19
-4.77
-6.61
-8.70
-10.90
-13.01
-14.92
-16.63
-18.32
-20.23
-22.59
-25.48
-28.83
-32.40
-35.81
-38.64
-40.35
-40.42
-38.46
-34.31
-28.15
-20.50
-12.06
-3.60
4.27
11.16
16.93
21.55
25.06
27.48
28.86
29.31
29.03
28.31
27.48
26.77
26.21
25.70
25.00
23.89
22.22
20.01
17.35
14.41
11.36
8.28
5.20
2.07
-1.18
-4.60
-8.14
-11.72
-15.27
-18.76
-22.27
-25.94
-29.91
-34.28
-38.95
-43.60
-47.71
-50.65
-51.76
-50.60
-47.01
-41.24
-33.83
-25.54
-17.05
-8.94
-1.57
4.85
10.16
14.22
16.90
18.22
18.38
17.65
16.41
14.90
13.23
11.33
9.03
6.23
2.89
-0.94
-5.15
-9.70
-14.56
-19.78
-25.37
-31.33
-37.69
-44.45
-51.64
-59.18
-66.82
-74.07
-80.33
-85.04
-87.94
-89.02
-88.48
-86.48
-82.96
-77.66
-70.20
-60.28
-47.80
-32.90
-15.95
2.46
21.54
40.32
57.75
72.85
84.96
93.82
99.57
102.63
103.53
102.79
100.80
97.95
94.52
90.74
86.75
82.61
78.34
73.92
69.40
64.86
60.43
56.20
52.18
48.25
44.21
39.91
35.30
30.43
25.43
20.43
15.45
10.53
5.63
0.82
-3.77
-8.03
-11.96
-15.73
-19.59
-23.86
-28.67
-33.96
-39.45
-44.62
-48.80
-51.28
-51.40
-48.79
-43.45
-35.86
-26.79
-17.14
-7.64
1.24
9.25
16.28
22.17
26.78
30.01
31.94
32.79
32.91
32.64
32.21
31.74
31.25
30.79
30.29
29.71
28.86
27.59
25.84
23.65
21.18
18.61
16.07
13.54
10.97
8.29
5.52
2.73
-0.01
-2.69
-5.36
-8.09
-10.93
-13.86
-16.87
-19.97
-23.25
-26.84
-30.83
-35.22
-39.80
-44.08
-47.31
-48.64
-47.39
-43.28
-36.59
-28.11
-18.88
-9.82
-1.54
5.70
11.91
17.16
21.45
24.73
26.98
28.28
28.84
28.87
28.58
28.08
27.43
26.61
25.56
24.22
22.55
20.59
18.49
16.39
14.42
12.51
10.49
8.09
5.17
1.78
-1.80
-5.23
-8.27
-10.90
-13.33
-15.92
-18.97
-22.61
-26.75
-31.21
-35.67
-39.76
-43.00
-44.80
-44.52
-41.69
-36.15
-28.30
-19.01
-9.38
-0.43
7.29
13.64
18.81
22.98
26.15
28.16
28.90
28.52
27.48
26.35
25.62
25.43
25.57
25.66
25.29
24.29
22.67
20.62
18.40
16.18
14.07
12.05
10.02
7.80
5.24
2.30
-0.97
-4.43
-7.96
-11.50
-15.05
-18.65
-22.28
-25.91
-29.57
-33.33
-37.31
-41.56
-45.89
-49.80
-52.55
-53.32
-51.52
-46.96
-39.94
-31.12
-21.37
-11.52
-2.22
6.10
13.21
19.02
23.54
26.84
29.10
30.52
31.30
31.60
31.52
31.14
30.55
29.86
29.19
28.53
27.76
26.67
25.11
23.02
20.57
17.99
15.50
13.13
10.78
8.28
5.55
2.64
-0.33
-3.25
-6.12
-9.05
-12.20
-15.68
-19.47
-23.52
-27.70
-32.03
-36.54
-41.20
-45.81
-49.82
-52.45
-52.81
-50.35
-45.03
-37.41
-28.42
-19.01
-9.87
-1.35
6.50
13.63
19.85
24.89
28.52
30.75
31.85
32.28
32.47
32.64
32.74
32.58
31.95
30.80
29.27
27.61
26.07
24.75
23.58
22.30
20.64
18.45
15.77
12.77
9.69
6.72
3.87
1.07
-1.81
-4.84
-7.99
-11.12
-14.06
-16.72
-19.16
-21.60
-24.39
-27.84
-32.06
-36.90
-41.89
-46.37
-49.65
-51.10
-50.36
-47.29
-42.08
-35.09
-26.88
-18.01
-9.01
-0.30
7.80
14.99
20.95
25.47
28.48
30.20
31.06
31.58
32.07
32.63
33.06
33.10
32.62
31.68
30.49
29.23
27.95
26.48
24.63
22.26
19.44
16.42
13.51
10.90
8.57
6.35
3.94
1.12
-2.14
-5.74
-9.44
-13.02
-16.42
-19.67
-22.92
-26.34
-30.06
-34.16
-38.56
-42.97
-46.87
-49.50
-50.08
-48.03
-43.26
-36.21
-27.72
-18.71
-9.93
-1.80
5.54
12.03
17.58
22.03
25.26
27.27
28.28
28.60
28.59
28.47
28.30
28.01
27.53
26.83
25.98
25.07
24.14
23.13
21.92
20.33
18.25
15.72
12.92
10.10
7.44
4.95
2.51
-0.11
-3.08
-6.44
-10.13
-13.99
-17.90
-21.77
-25.57
-29.26
-32.84
-36.37
-40.00
-43.84
-47.88
-51.79
-54.87
-56.24
-55.05
-50.87
-43.85
-34.74
-24.58
-14.42
-5.01
3.33
10.56
16.76
21.99
26.17
29.24
31.24
32.35
32.92
33.24
33.51
33.69
33.66
33.27
32.51
31.48
30.37
29.33
28.37
27.35
26.06
24.29
21.98
19.21
16.18
13.10
10.13
7.28
4.50
1.63
-1.42
-4.71
-8.15
-11.63
-15.04
-18.32
-21.55
-24.88
-28.51
-32.59
-37.21
-42.28
-47.46
-52.17
-55.63
-57.04
-55.79
-51.74
-45.19
-36.85
-27.55
-18.01
-8.69
0.11
8.21
15.37
21.34
25.92
29.09
31.08
32.24
32.99
33.61
34.18
34.58
34.62
34.15
33.18
31.93
30.67
29.65
28.92
28.28
27.42
26.02
23.94
21.27
18.28
15.31
12.59
10.11
7.70
5.08
2.06
-1.39
-5.04
-8.61
-11.84
-14.67
-17.27
-19.94
-22.98
-26.56
-30.69
-35.21
-39.85
-44.25
-47.92
-50.25
-50.60
-48.50
-43.84
-36.97
-28.60
-19.59
-10.63
-2.14
5.68
12.77
18.97
24.07
27.91
30.52
32.14
33.16
33.90
34.50
34.92
35.01
34.71
34.09
33.27
32.40
31.47
30.38
28.91
26.88
24.22
21.04
17.67
14.46
11.74
9.60
7.83
6.05
3.80
0.85
-2.75
-6.70
-10.56
-14.06
-17.14
-19.97
-22.78
-25.78
-29.05
-32.57
-36.31
-40.15
-43.84
-46.89
-48.58
-48.21
-45.33
-39.97
-32.67
-24.29
-15.68
-7.44
0.20
7.19
13.51
19.04
23.59
26.97
29.15
30.34
30.82
30.94
30.90
30.74
30.38
29.73
28.71
27.34
25.75
24.07
22.44
20.90
19.40
17.75
15.77
13.37
10.63
7.83
5.25
3.16
1.52
0.12
-1.47
-3.60
-6.40
-9.69
-13.12
-16.36
-19.24
-21.82
-24.29
-26.93
-29.94
-33.43
-37.44
-41.88
-46.49
-50.80
-54.15
-55.77
-55.04
-51.72
-46.00
-38.41
-29.69
-20.49
-11.33
-2.56
5.59
12.85
19.00
23.91
27.58
30.17
31.96
33.25
34.26
35.08
35.67
35.93
35.74
35.09
34.04
32.78
31.48
30.23
28.99
27.59
25.86
23.67
20.99
17.91
14.61
11.28
8.08
5.13
2.42
-0.17
-2.81
-5.69
-8.86
-12.22
-15.52
-18.52
-21.14
-23.57
-26.20
-29.39
-33.35
-37.99
-42.97
-47.72
-51.64
-54.09
-54.53
-52.62
-48.24
-41.66
-33.51
-24.60
-15.72
-7.39
0.16
6.99
13.21
18.83
23.70
27.60
30.41
32.23
33.34
34.09
34.72
35.23
35.40
35.02
33.98
32.40
30.58
28.76
27.05
25.37
23.53
21.42
19.00
16.38
13.74
11.22
8.89
6.73
4.62
2.35
-0.27
-3.36
-6.86
-10.50
-13.94
-16.92
-19.41
-21.66
-24.06
-26.97
-30.54
-34.64
-38.89
-42.73
-45.56
-46.76
-45.88
-42.62
-37.09
-29.76
-21.35
-12.66
-4.33
3.30
10.13
16.13
21.23
25.28
28.09
29.60
29.98
29.55
28.72
27.81
26.97
26.18
25.35
24.38
23.20
21.82
20.28
18.64
16.92
15.10
13.08
10.70
7.83
4.45
0.64
-3.37
-7.29
-10.95
-14.28
-17.38
-20.43
-23.58
-26.90
-30.43
-34.22
-38.30
-42.60
-46.82
-50.34
-52.34
-52.03
-48.95
-43.20
-35.43
-26.54
-17.42
-8.64
-0.45
7.13
14.09
20.29
25.50
29.46
32.04
33.35
33.66
33.37
32.83
32.25
31.67
31.01
30.12
28.89
27.27
25.30
23.08
20.71
18.24
15.64
12.86
9.83
6.50
2.85
-1.05
-5.06
-8.98
-12.66
-16.03
-19.22
-22.51
-26.24
-30.64
-35.80
-41.56
-47.52
-53.14
-57.72
-60.52
-60.83
-58.25
-52.77
-44.83
-35.28
-25.07
-14.97
-5.44
3.35
11.37
18.51
24.62
29.50
33.06
35.47
37.02
38.07
38.86
39.45
39.78
39.79
39.44
38.77
37.85
36.65
35.10
33.08
30.56
27.56
24.20
20.65
17.04
13.48
10.02
6.64
3.24
-0.33
-4.18
-8.33
-12.66
-16.94
-20.99
-24.75
-28.33
-32.02
-36.12
-40.83
-46.10
-51.55
-56.45
-59.89
-60.94
-58.98
-53.93
-46.25
-36.84
-26.73
-16.72
-7.27
1.46
9.43
16.61
22.91
28.20
32.48
35.84
38.45
40.49
42.07
43.30
44.18
44.72
44.85
44.52
43.68
42.39
40.83
39.24
37.80
36.49
35.03
33.06
30.32
26.86
23.01
19.20
15.77
12.76
9.95
7.08
3.96
0.60
-2.85
-6.25
-9.54
-12.81
-16.13
-19.52
-22.93
-26.26
-29.54
-32.90
-36.60
-40.82
-45.57
-50.52
-55.00
-58.13
-59.00
-57.03
-52.18
-44.90
-36.02
-26.46
-16.85
-7.52
1.51
10.22
18.42
25.79
31.88
36.46
39.56
41.48
42.63
43.32
43.67
43.63
43.14
42.21
40.98
39.62
38.25
36.87
35.42
33.76
31.84
29.61
27.06
24.16
20.96
17.55
14.12
10.91
8.09
5.63
3.32
0.85
-2.03
-5.34
-8.87
-12.32
-15.46
-18.29
-20.97
-23.72
-26.70
-29.94
-33.38
-36.97
-40.64
-44.17
-47.06
-48.53
-47.74
-44.16
-37.83
-29.44
-20.05
-10.73
-2.18
5.34
11.84
17.38
21.95
25.42
27.74
29.06
29.74
30.12
30.46
30.72
30.69
30.10
28.86
27.05
24.92
22.73
20.60
18.54
16.45
14.25
11.96
9.63
7.31
4.93
2.39
-0.42
-3.54
-6.89
-10.33
-13.69
-16.89
-19.91
-22.80
-25.67
-28.64
-31.85
-35.36
-39.22
-43.28
-47.24
-50.60
-52.72
-52.97
-50.90
-46.39
-39.74
-31.55
-22.58
-13.51
-4.83
3.23
10.54
17.03
22.58
27.06
30.38
32.60
33.89
34.46
34.52
34.24
33.69
32.89
31.83
30.49
28.85
26.91
24.73
22.42
20.05
17.75
15.55
13.44
11.32
9.07
6.61
3.90
0.95
-2.20
-5.48
-8.85
-12.25
-15.64
-18.99
-22.27
-25.50
-28.76
-32.18
-35.92
-40.05
-44.43
-48.64
-51.96
-53.58
-52.87
-49.55
-43.80
-36.20
-27.48
-18.32
-9.21
-0.49
7.63
14.95
21.28
26.46
30.44
33.26
35.05
35.97
36.20
35.93
35.31
34.47
33.48
32.40
31.21
29.90
28.42
26.75
24.83
22.67
20.25
17.59
14.76
11.81
8.83
5.88
2.92
-0.07
-3.15
-6.35
-9.60
-12.81
-15.93
-18.95
-21.99
-25.24
-28.92
-33.08
-37.55
-41.81
-45.11
-46.63
-45.71
-42.06
-35.88
-27.81
-18.68
-9.32
-0.36
7.78
14.85
20.72
25.31
28.61
30.80
32.17
32.99
33.48
33.65
33.41
32.65
31.34
29.61
27.67
25.70
23.77
21.82
19.75
17.54
15.26
13.00
10.83
8.67
6.43
3.99
1.35
-1.42
-4.21
-6.93
-9.63
-12.41
-15.45
-18.90
-22.78
-27.04
-31.55
-36.21
-40.93
-45.63
-50.06
-53.75
-56.00
-56.05
-53.41
-48.05
-40.51
-31.64
-22.30
-13.06
-4.16
4.38
12.47
19.77
25.83
30.22
32.84
33.93
34.09
33.90
33.79
33.83
33.84
33.54
32.78
31.60
30.18
28.76
27.40
26.05
24.51
22.61
20.25
17.52
14.60
11.69
8.98
6.51
4.22
1.99
-0.33
-2.83
-5.54
-8.45
-11.46
-14.48
-17.50
-20.52
-23.62
-26.88
-30.37
-34.12
-38.12
-42.25
-46.18
-49.37
-51.07
-50.56
-47.43
-41.70
-33.97
-25.16
-16.21
-7.74
0.02
7.15
13.73
19.65
24.61
28.30
30.62
31.77
32.15
32.22
32.25
32.26
32.10
31.59
30.59
29.18
27.53
25.90
24.41
23.08
21.74
20.15
18.10
15.55
12.57
9.33
6.01
2.70
-0.58
-3.86
-7.09
-10.19
-13.08
-15.74
-18.32
-21.02
-24.13
-27.85
-32.23
-37.10
-41.98
-46.16
-48.78
-49.11
-46.73
-41.68
-34.44
-25.72
-16.32
-6.83
2.27
10.68
18.11
24.31
29.10
32.43
34.48
35.50
35.82
35.65
35.12
34.23
33.04
31.62
30.09
28.51
26.92
25.26
23.45
21.50
19.45
17.36
15.22
12.94
10.35
7.34
3.95
0.41
-2.95
-5.89
-8.38
-10.59
-12.84
-15.42
-18.39
-21.70
-25.18
-28.70
-32.24
-35.82
-39.46
-43.00
-46.08
-48.21
-48.84
-47.53
-44.07
-38.55
-31.36
-23.09
-14.37
-5.75
2.40
9.83
16.35
21.77
25.92
28.73
30.24
30.75
30.66
30.33
30.04
29.85
29.68
29.40
28.85
27.96
26.69
25.05
23.08
20.82
18.37
15.81
13.19
10.54
7.80
4.92
1.86
-1.32
-4.51
-7.55
-10.37
-12.99
-15.52
-18.13
-20.89
-23.84
-26.93
-30.16
-33.52
-36.98
-40.40
-43.36
-45.25
-45.40
-43.39
-39.11
-32.96
-25.57
-17.68
-9.84
-2.36
4.61
11.01
16.64
21.28
24.70
26.84
27.85
28.03
27.72
27.15
26.41
25.43
24.15
22.53
20.66
18.71
16.87
15.26
13.83
12.36
10.57
8.21
5.27
1.98
-1.29
-4.20
-6.61
-8.73
-10.93
-13.66
-17.14
-21.35
-25.95
-30.41
-34.09
-36.34
-36.66
-34.78
-30.73
-24.91
-17.91
-10.42
-3.00
3.96
10.23
15.59
19.86
22.88
24.58
25.08
24.60
23.42
21.80
19.91
17.85
15.73
13.62
11.57
9.58
7.49
5.16
2.43
-0.69
-4.08
-7.46
-10.64
-13.52
-16.17
-18.82
-21.70
-24.97
-28.72
-32.93
-37.49
-42.14
-46.45
-49.73
-51.18
-50.13
-46.30
-39.95
-31.79
-22.75
-13.62
-4.93
3.06
10.21
16.36
21.30
24.88
27.12
28.26
28.68
28.72
28.58
28.29
27.81
27.03
25.91
24.41
22.51
20.20
17.45
14.29
10.82
7.15
3.45
-0.19
-3.76
-7.29
-10.92
-14.81
-19.11
-23.92
-29.19
-34.62
-39.63
-43.37
-45.04
-44.06
-40.34
-34.23
-26.47
-17.87
-9.08
-0.54
7.48
14.72
20.92
25.78
29.12
30.97
31.63
31.53
31.08
30.55
30.07
29.57
28.93
28.08
26.95
25.55
23.84
21.78
19.30
16.35
12.94
9.18
5.20
1.18
-2.78
-6.63
-10.45
-14.39
-18.68
-23.55
-29.07
-35.03
-40.84
-45.61
-48.34
-48.26
-45.09
-39.15
-31.22
-22.26
-13.07
-4.20
4.09
11.66
18.38
24.02
28.43
31.58
33.62
34.88
35.69
36.29
36.76
37.03
36.96
36.41
35.36
33.87
32.06
30.04
27.86
25.53
22.99
20.15
16.98
13.49
9.75
5.86
1.91
-2.07
-6.06
-10.08
-14.19
-18.47
-22.99
-27.82
-33.00
-38.50
-44.17
-49.62
-54.26
-57.29
-57.86
-55.40
-49.76
-41.33
-30.99
-19.75
-8.51
2.13
11.85
20.44
27.73
33.47
37.52
39.94
41.03
41.30
41.27
41.21
41.11
40.75
39.85
38.37
36.49
34.59
33.02
31.88
30.99
29.96
28.37
26.05
23.14
20.00
17.04
14.49
12.28
10.12
7.62
4.55
0.91
-3.00
-6.83
-10.30
-13.38
-16.34
-19.53
-23.30
-27.80
-32.93
-38.39
-43.65
-48.06
-50.90
-51.56
-49.63
-45.11
-38.43
-30.29
-21.48
-12.64
-4.15
3.81
11.16
17.75
23.38
27.83
30.94
32.80
33.65
33.87
33.84
33.77
33.71
33.55
33.14
32.37
31.27
29.93
28.46
26.93
25.28
23.38
21.09
18.33
15.09
11.44
7.51
3.41
-0.73
-4.79
-8.71
-12.48
-16.17
-19.88
-23.73
-27.84
-32.22
-36.74
-41.08
-44.69
-46.91
-47.11
-44.86
-40.13
-33.26
-24.91
-15.86
-6.84
1.63
9.21
15.70
21.01
25.08
27.90
29.54
30.17
30.06
29.51
28.78
28.05
27.35
26.61
25.70
24.50
22.94
21.04
18.87
16.53
14.09
11.56
8.86
5.93
2.71
-0.78
-4.45
-8.16
-11.74
-15.06
-18.10
-20.89
-23.59
-26.36
-29.38
-32.82
-36.69
-40.87
-44.96
-48.36
-50.32
-50.14
-47.42
-42.18
-34.89
-26.28
-17.12
-8.03
0.58
8.42
15.28
20.92
25.16
27.98
29.58
30.31
30.53
30.50
30.32
29.96
29.33
28.44
27.30
25.95
24.41
22.67
20.77
18.74
16.64
14.47
12.19
9.62
6.62
3.13
-0.80
-4.98
-9.19
-13.29
-17.25
-21.22
-25.39
-29.98
-35.03
-40.47
-46.10
-51.74
-57.31
-62.85
-68.47
-74.18
-79.67
-84.25
-86.98
-86.95
-83.75
-77.74
-70.05
-62.33
-56.12
-52.32
-50.93
-51.16
-51.91
-52.41
-52.60
-53.15
-54.98
-58.71
-64.35
-71.16
-77.94
-83.07
-84.40
-79.09
-63.94
-36.40
3.90
54.00
107.65
156.80
194.04
214.96
219.18
209.73
191.51
169.41
147.40
128.31
114.33
107.21
107.78
115.04
125.51
133.60
132.88
118.21
87.53
43.06
-9.00
-60.56
-104.48
-136.96
-158.41
-172.59
-184.35
-197.19
-211.66
-225.09
-233.54
-233.76
-224.77
-207.76
-185.13
-159.28
-132.03
-104.32
-75.77
-46.28
-17.02
9.48
30.40
44.02
50.20
50.22
46.78
45.04
49.37
61.32
78.81
97.76
114.46
126.49
132.25
131.77
128.85
127.22
128.52
131.63
134.46
136.13
136.61
135.33
132.88
135.00
148.59
178.81
226.40
288.09
358.51
430.78
496.88
523.52
487.52
389.46
256.49
122.68
9.99
-73.93
-125.08
-153.93
-167.79
-167.81
-155.07
-133.25
-108.94
-91.49
-85.10
-89.51
-102.66
-120.25
-135.39
-142.83
-140.82
-131.81
-120.18
-109.13
-100.37
-95.18
-93.06
-91.33
-87.62
-81.06
-72.92
-65.38
-59.83
-56.84
-56.85
-59.11
-61.63
-62.37
-60.11
-55.04
-48.32
-40.94
-33.58
-26.70
-20.05
-13.08
-5.60
1.97
8.65
13.52
16.26
17.12
16.46
14.68
11.94
8.25
3.75
-1.21
-6.12
-10.55
-14.34
-17.67
-20.83
-24.07
-27.48
-30.96
-34.29
-37.18
-39.39
-40.73
-41.18
-40.96
-40.66
-41.13
-43.25
-47.61
-54.21
-62.17
-69.73
-74.43
-73.69
-65.60
-49.72
-27.51
-2.16
22.29
42.16
55.22
61.10
61.02
57.04
51.28
45.52
41.23
39.62
41.66
47.72
57.23
68.55
79.34
87.22
90.51
88.68
82.37
73.06
62.52
52.32
43.51
36.52
31.21
27.05
23.31
19.38
14.88
9.82
4.42
-0.98
-6.15
-11.11
-16.00
-20.99
-25.99
-30.70
-34.61
-37.28
-38.45
-38.20
-36.84
-34.70
-32.08
-29.17
-26.14
-23.21
-20.67
-18.81
-17.77
-17.48
-17.66
-17.99
-18.18
-18.06
-17.63
-16.97
-16.15
-15.23
-14.18
-12.93
-11.50
-9.92
-8.38
-7.10
-6.30
-6.12
-6.56
-7.54
-9.00
-11.00
-13.73
-17.34
-21.84
-26.96
-32.21
-37.05
-41.10
-44.23
-46.56
-48.30
-49.68
-50.84
-51.87
-52.76
-53.35
-53.26
-51.94
-48.80
-43.37
-35.52
-25.44
-13.49
0.07
15.24
32.33
51.66
73.21
96.24
119.19
139.89
156.18
166.58
170.77
169.80
165.62
160.44
155.89
152.44
149.12
143.73
133.42
115.78
89.93
57.51
22.74
-8.36
-29.80
-37.58
-31.19
-13.92
8.11
27.82
39.38
39.72
29.10
10.49
-11.90
-34.17
-53.98
-70.89
-85.86
-100.21
-114.60
-128.41
-139.94
-147.03
-147.78
-141.16
-127.07
-106.61
-81.69
-54.95
-29.51
-8.47
5.90
13.06
14.66
14.03
14.91
20.09
30.36
44.10
57.85
67.50
69.66
62.55
46.38
22.82
-4.91
-32.62
-56.24
-73.20
-83.50
-89.60
-95.50
-104.77
-119.76
-139.20
-158.51
-172.24
-177.26
-174.42
-167.77
-162.42
-161.90
-168.73
-181.32
-194.78
-203.72
-205.43
-200.75
-192.44
-182.92
-172.65
-163.08
-152.12
-134.76
-105.77
-64.04
-14.05
35.69
75.36
96.48
89.65
52.83
-7.37
-77.79
-144.34
-196.13
-226.89
-235.54
-198.97
-116.60
-13.24
76.20
132.23
156.08
159.65
155.40
151.46
151.07
146.87
137.66
126.19
117.43
114.25
115.73
118.41
118.65
114.42
102.50
84.79
65.70
50.83
43.21
42.14
44.59
47.34
48.50
46.05
41.00
36.35
35.90
41.64
52.64
65.92
77.86
85.45
86.13
79.84
68.59
55.85
44.84
37.44
34.08
34.10
36.16
38.42
39.61
39.10
37.01
33.82
29.87
25.26
19.80
13.20
5.42
-3.10
-11.60
-19.13
-24.82
-28.38
-30.22
-31.36
-32.98
-35.81
-39.87
-44.53
-48.80
-51.65
-52.45
-51.04
-47.70
-42.95
-37.01
-29.99
-22.07
-13.60
-5.07
3.10
10.60
17.32
23.16
28.75
34.43
40.08
45.15
49.14
51.93
53.73
54.79
55.14
56.08
58.52
62.45
66.99
71.13
74.29
76.27
76.86
75.66
74.24
73.66
73.68
73.02
70.87
67.78
65.54
66.03
70.39
81.46
100.42
125.73
153.69
180.65
204.59
225.35
243.49
241.46
209.05
149.10
76.75
8.44
-46.50
-86.00
-111.84
-127.31
-135.93
-137.67
-132.27
-120.90
-106.71
-92.20
-80.35
-72.62
-69.42
-70.50
-73.00
-74.37
-73.74
-71.99
-70.49
-70.00
-70.33
-70.95
-71.44
-70.78
-68.04
-63.38
-58.04
-53.39
-50.29
-48.68
-47.88
-46.94
-44.17
-38.15
-28.51
-16.07
-2.33
11.05
22.85
32.38
39.41
44.29
47.46
49.09
49.07
47.33
44.05
39.75
35.10
30.69
26.87
23.73
21.14
18.84
16.69
14.63
12.67
10.86
9.10
7.18
4.85
1.94
-1.57
-5.50
-9.53
-13.33
-16.66
-19.42
-21.71
-23.73
-25.79
-28.26
-31.45
-35.56
-40.46
-45.67
-50.31
-53.35
-53.84
-51.28
-45.69
-37.68
-28.13
-17.98
-7.95
1.49
10.04
17.45
23.51
28.04
31.04
32.70
33.36
33.41
33.07
32.42
31.41
30.05
28.52
27.15
26.27
26.01
26.16
26.11
25.06
22.34
17.62
11.08
3.26
-5.11
-13.40
-21.23
-28.44
-35.01
-40.95
-46.31
-51.18
-55.78
-60.27
-64.70
-68.78
-71.88
-73.08
-71.59
-66.95
-59.30
-49.38
-38.22
-26.87
-16.08
-6.29
2.34
9.69
15.70
20.25
23.35
25.14
25.96
26.23
26.30
26.30
26.14
25.56
24.28
22.17
19.28
15.85
12.22
8.67
5.34
2.23
-0.85
-4.12
-7.78
-11.94
-16.55
-21.50
-26.53
-31.35
-35.62
-39.07
-41.61
-43.43
-44.96
-46.70
-48.89
-51.24
-52.90
-52.72
-49.70
-43.43
-34.36
-23.51
-12.12
-1.17
8.93
18.16
26.62
34.22
40.58
45.34
48.31
49.74
50.15
50.08
49.93
49.73
49.33
48.50
47.12
45.26
43.09
40.76
38.32
35.79
33.16
30.38
27.38
24.11
20.62
17.02
13.50
10.21
7.28
4.75
2.50
0.25
-2.11
-4.38
-6.20
-7.29
-7.62
-7.50
-7.44
-8.14
-10.00
-12.62
-14.54
-13.88
-9.12
0.33
13.94
30.28
47.05
61.81
72.87
79.84
83.18
83.53
81.35
76.83
69.97
60.23
46.81
29.36
8.56
-14.54
-38.95
-63.72
-87.70
-106.30
-113.42
-106.33
-88.25
-65.43
-43.33
-24.95
-10.94
-0.66
6.75
10.96
10.45
3.77
-8.83
-25.45
-43.07
-58.37
-69.02
-74.23
-75.03
-73.50
-72.27
-71.29
-69.93
-67.65
-64.13
-59.49
-53.98
-48.00
-41.89
-35.75
-29.16
-21.96
-14.32
-6.40
1.49
9.13
16.33
23.07
29.53
36.36
44.28
52.05
59.03
64.64
68.45
70.25
70.08
68.30
65.49
62.13
58.44
54.71
50.94
46.95
42.59
37.76
32.45
26.77
20.73
14.29
7.68
1.08
-5.24
-11.01
-16.06
-20.35
-24.08
-27.52
-30.89
-34.09
-36.84
-38.80
-39.73
-39.68
-38.95
-38.10
-37.76
-38.52
-40.69
-44.27
-48.88
-53.66
-57.49
-59.21
-57.97
-53.65
-46.88
-38.85
-30.91
-24.06
-18.74
-14.77
-11.60
-8.62
-5.47
-1.98
1.85
6.01
10.68
16.08
22.40
29.52
37.03
44.20
50.29
54.70
57.22
58.00
57.39
55.70
52.96
49.02
43.66
36.94
29.31
21.60
14.66
9.12
5.06
2.11
-0.35
-2.94
-6.02
-9.72
-14.00
-18.70
-23.55
-28.08
-31.62
-33.35
-32.64
-29.18
-23.17
-15.26
-6.36
2.67
11.24
19.01
25.85
31.71
36.49
40.06
42.32
43.27
43.13
42.22
40.93
39.53
38.15
36.76
35.23
33.46
31.38
28.96
26.19
23.10
19.78
16.37
12.99
9.72
6.45
3.00
-0.85
-5.26
-10.21
-15.47
-20.72
-25.63
-29.98
-33.78
-37.22
-40.60
-44.22
-48.17
-52.24
-55.86
-58.20
-58.39
-55.76
-50.06
-41.58
-31.07
-19.53
-7.96
2.89
12.56
20.95
28.07
33.95
38.58
41.94
44.02
44.96
44.99
44.41
43.49
42.45
41.38
40.30
39.14
37.82
36.31
34.65
32.94
31.28
29.65
27.92
25.86
23.25
19.92
15.97
11.66
7.37
3.43
-0.05
-3.25
-6.61
-10.72
-16.09
-22.88
-30.76
-38.93
-46.15
-51.16
-52.97
-51.16
-46.04
-38.48
-29.66
-20.66
-12.20
-4.55
2.34
8.54
14.02
18.56
21.93
23.99
24.82
24.63
23.78
22.58
21.35
20.34
19.65
19.21
18.75
17.92
16.49
14.44
11.94
9.19
6.25
2.91
-1.13
-6.07
-11.79
-17.90
-23.89
-29.35
-34.17
-38.50
-42.62
-46.83
-51.35
-56.32
-61.82
-67.76
-73.86
-79.37
-83.23
-84.23
-81.39
-74.36
-63.63
-50.34
-35.93
-21.54
-7.77
5.43
18.42
31.52
44.75
57.72
69.81
80.32
88.77
94.94
98.95
101.16
102.07
102.12
101.54
100.24
97.93
94.31
89.20
82.77
75.41
67.59
59.64
51.61
43.31
34.51
25.11
15.18
5.04
-5.03
-14.88
-24.54
-34.17
-43.87
-53.63
-63.34
-72.87
-81.98
-90.33
-97.29
-101.93
-103.19
-100.27
-93.01
-82.03
-68.68
-54.47
-40.67
-27.93
-16.35
-5.79
3.80
12.17
18.91
23.66
26.41
27.57
27.80
27.80
27.98
28.41
28.90
29.20
29.16
28.76
28.09
27.24
26.31
25.39
24.54
23.84
23.25
22.60
21.63
20.01
17.42
13.73
9.01
3.51
-2.42
-8.42
-14.21
-19.63
-24.67
-29.45
-34.23
-39.29
-44.81
-50.64
-56.21
-60.54
-62.52
-61.20
-56.20
-47.86
-37.15
-25.38
-13.76
-3.19
5.90
13.45
19.58
24.43
28.09
30.63
32.09
32.59
32.26
31.35
30.08
28.70
27.44
26.42
25.68
25.16
24.69
24.09
23.21
21.95
20.25
18.00
15.08
11.36
6.85
1.77
-3.52
-8.56
-12.98
-16.65
-19.68
-22.37
-25.11
-28.21
-31.83
-35.95
-40.31
-44.43
-47.56
-48.87
-47.54
-43.07
-35.50
-25.45
-14.02
-2.53
7.92
16.69
23.69
29.16
33.50
36.96
39.64
41.47
42.41
42.54
42.08
41.34
40.65
40.15
39.86
39.62
39.18
38.33
36.95
35.08
32.77
30.15
27.28
24.18
20.76
16.89
12.45
7.46
2.09
-3.32
-8.35
-12.69
-16.30
-19.41
-22.51
-26.10
-30.49
-35.72
-41.63
-47.83
-53.79
-58.77
-61.86
-62.12
-58.86
-52.00
-42.11
-30.40
-18.32
-7.14
2.37
10.06
16.21
21.25
25.47
28.91
31.41
32.81
33.02
32.21
30.70
28.87
27.09
25.54
24.24
23.12
22.08
21.04
19.95
18.81
17.57
16.19
14.63
12.89
10.99
8.93
6.63
3.98
0.80
-2.98
-7.32
-11.91
-16.38
-20.35
-23.75
-26.82
-30.09
-34.11
-39.11
-44.84
-50.49
-54.86
-56.73
-55.27
-50.32
-42.42
-32.68
-22.35
-12.49
-3.76
3.65
9.82
14.91
19.04
22.21
24.48
25.98
27.03
27.98
29.07
30.37
31.68
32.76
33.40
33.53
33.25
32.73
32.08
31.26
30.13
28.46
26.10
23.02
19.29
15.05
10.41
5.48
0.34
-4.88
-9.97
-14.69
-18.86
-22.41
-25.48
-28.40
-31.63
-35.62
-40.60
-46.38
-52.29
-57.24
-59.99
-59.49
-55.39
-48.08
-38.58
-28.11
-17.71
-8.05
0.50
7.87
13.99
18.77
22.06
23.87
24.40
24.04
23.26
22.36
21.61
21.00
20.35
19.33
17.78
15.72
13.40
11.07
8.82
6.94
5.61
4.68
3.58
1.61
-1.72
-6.52
-12.63
-19.64
-26.34
-31.57
-35.00
-37.49
-40.58
-45.53
-52.92
-62.56
-73.66
-83.81
-90.40
-91.94
-88.86
-82.88
-75.70
-68.22
-60.41
-51.45
-38.32
-17.64
12.57
51.81
97.58
146.72
196.08
242.66
272.96
274.99
245.43
193.07
132.52
76.00
30.76
-0.19
-16.94
-22.23
-19.10
-11.35
-3.30
1.00
-0.58
-7.14
-15.52
-22.29
-25.60
-24.34
-18.99
-11.46
-4.04
0.89
2.29
0.39
-4.00
-10.23
-16.87
-22.31
-25.40
-25.92
-24.65
-22.80
-21.63
-22.22
-25.31
-30.35
-35.92
-40.40
-42.75
-42.82
-41.21
-39.19
-36.70
-34.56
-33.17
-32.41
-31.71
-30.33
-27.71
-23.61
-18.19
-12.03
-6.04
-0.89
3.16
6.22
8.51
10.10
10.85
10.54
9.01
6.22
2.51
-1.57
-5.50
-8.91
-11.64
-13.75
-15.42
-16.94
-18.70
-20.96
-23.71
-26.55
-28.79
-29.66
-28.64
-25.68
-21.21
-16.07
-11.04
-6.74
-3.47
-1.29
-0.07
0.38
0.27
-0.16
-0.67
-0.99
-0.94
-0.36
0.61
1.58
1.87
0.63
-2.81
-8.58
-16.09
-24.18
-31.50
-37.11
-40.83
-43.36
-45.99
-50.17
-56.92
-66.47
-77.93
-89.15
-97.00
-98.07
-89.79
-71.57
-45.35
-15.20
14.01
38.14
55.11
65.03
69.68
71.51
72.70
74.75
78.57
84.50
92.43
101.71
111.07
118.95
123.89
124.98
121.96
115.21
105.48
93.74
81.14
68.90
58.15
49.74
44.04
40.89
39.83
40.45
42.62
46.47
52.10
59.22
66.94
73.88
78.58
79.96
77.66
72.06
64.15
55.09
45.98
37.48
29.84
22.96
16.71
11.11
6.50
3.40
2.21
2.98
5.19
7.99
10.45
12.03
12.68
12.76
12.71
12.60
12.02
10.10
5.89
-1.25
-11.30
-23.59
-37.05
-50.58
-63.42
-75.42
-86.92
-98.57
-110.95
-124.13
-137.31
-148.66
-155.43
-154.70
-144.39
-124.35
-97.04
-67.34
-41.38
-24.66
-20.31
-27.98
-44.03
-62.96
-79.30
-89.40
-92.41
-89.84
-84.36
-78.20
-72.02
-64.73
-54.28
-39.00
-18.72
4.90
28.77
49.33
63.57
69.55
66.62
55.36
37.38
15.33
-7.39
-27.09
-40.48
-45.61
-42.51
-33.14
-20.80
-9.11
-0.87
2.45
0.88
-4.50
-12.23
-21.14
-30.38
-39.45
-48.01
-55.39
-60.93
-63.95
-63.79
-60.07
-52.91
-42.77
-30.74
-18.66
-8.30
-1.40
1.16
-0.14
-3.76
-7.67
-9.79
-8.82
-4.68
2.14
10.02
16.52
18.83
16.57
9.35
-1.24
-11.33
-19.56
-22.41
-17.77
-5.90
12.80
35.06
56.94
75.48
88.90
96.08
96.84
91.09
79.55
64.19
47.77
33.29
23.16
18.27
17.86
20.64
25.08
30.35
36.55
43.96
52.56
61.73
69.93
75.29
76.63
73.83
68.00
60.97
54.05
47.43
40.20
31.05
19.23
5.34
-8.91
-21.45
-30.68
-36.23
-38.93
-40.11
-40.97
-42.19
-43.77
-45.27
-46.24
-46.40
-46.11
-46.33
-47.60
-49.65
-51.34
-51.03
-47.20
-39.16
-27.13
-12.71
1.07
11.65
17.49
18.38
15.59
11.67
9.84
13.34
23.48
37.83
52.15
61.49
61.90
52.29
35.36
16.68
3.23
-0.17
6.47
20.41
37.32
52.17
60.57
59.47
43.67
13.38
-19.62
-47.98
-67.24
-73.56
-66.22
-48.19
-24.98
-2.38
16.41
30.62
40.20
46.44
50.57
52.68
52.51
50.37
47.54
46.15
47.33
49.67
51.36
51.05
48.45
44.79
42.13
42.19
45.57
50.89
54.95
55.02
50.08
41.00
30.36
21.69
18.35
22.87
35.84
55.23
76.86
95.22
104.77
101.89
86.17
60.55
30.21
0.30
-25.84
-47.13
-64.01
-77.28
-86.95
-92.48
-93.49
-90.51
-84.96
-78.59
-72.74
-68.22
-65.58
-65.40
-68.29
-74.57
-83.86
-95.01
-106.51
-117.01
-125.68
-132.18
-136.34
-138.06
-137.29
-134.10
-128.76
-121.47
-112.09
-100.28
-85.95
-70.08
-54.92
-43.34
-37.45
-37.18
-39.41
-38.35
-27.32
-1.18
41.34
96.33
155.38
207.90
244.44
259.76
254.24
233.23
204.52
175.36
150.24
130.32
114.38
100.49
87.29
74.21
60.94
46.74
30.46
11.20
-10.78
-33.53
-53.79
-68.12
-74.49
-73.19
-66.92
-59.80
-55.71
-56.75
-62.49
-70.34
-76.77
-78.76
-74.85
-65.38
-52.25
-37.86
-24.47
-13.90
-7.49
-6.02
-9.36
-16.23
-24.38
-31.41
-35.29
-34.90
-30.09
-21.48
-10.00
3.48
18.17
33.13
46.63
56.93
62.85
64.01
60.68
53.56
43.79
33.07
23.44
15.78
11.10
10.73
15.60
25.20
37.52
50.05
60.75
68.40
69.94
63.92
51.72
36.82
22.42
10.15
0.57
-6.55
-12.29
-22.48
-41.36
-68.56
-99.59
-129.29
-154.35
-173.05
-185.22
-192.72
-204.36
-227.26
-262.47
-305.31
-349.66
-391.04
-426.02
-451.63
-429.83
-343.24
-208.50
-64.46
57.34
143.43
192.07
207.66
200.99
180.97
149.97
111.16
71.09
38.03
22.04
26.55
49.89
86.76
129.20
165.06
185.85
190.70
185.46
177.74
172.44
171.60
175.06
180.72
183.14
177.43
160.83
132.71
93.57
45.09
-8.06
-58.45
-98.37
-123.53
-133.38
-130.30
-118.09
-100.54
-80.61
-59.63
-38.06
-16.80
2.04
16.04
23.69
25.17
22.01
16.13
9.31
2.72
-3.11
-7.81
-11.10
-12.64
-12.32
-10.27
-6.80
-2.03
4.15
11.94
21.10
30.68
39.05
44.59
46.37
44.78
41.44
38.58
38.21
41.63
49.16
60.18
73.15
85.58
94.00
94.52
83.85
60.76
27.09
-12.16
-50.16
-80.39
-98.78
-104.64
-100.27
-89.35
-75.32
-60.28
-45.04
-29.79
-14.91
-1.29
9.94
17.97
22.86
25.43
27.00
28.68
31.04
34.02
36.97
38.94
38.96
36.32
30.83
23.16
14.71
7.24
2.35
0.93
2.88
7.48
13.89
21.60
30.55
40.78
51.95
63.21
73.70
83.13
92.11
101.66
112.10
122.18
129.01
129.12
120.19
102.40
78.52
52.68
28.43
7.30
-11.14
-27.93
-43.26
-55.78
-63.21
-63.83
-57.66
-46.65
-33.81
-21.53
-10.64
-0.66
9.14
18.77
27.34
33.62
36.95
37.30
35.78
33.91
32.36
30.43
26.45
18.78
6.90
-8.32
-25.87
-44.02
-61.09
-76.33
-90.26
-103.85
-117.64
-131.01
-142.52
-151.88
-158.47
-161.57
-161.09
-158.19
-154.64
-152.02
-151.07
-151.67
-154.73
-159.46
-163.24
-162.74
-155.79
-141.64
-120.97
-95.38
-56.42
-6.13
45.64
89.29
122.01
145.26
161.57
171.62
173.98
167.44
150.77
125.95
96.28
67.39
43.41
26.08
15.07
9.16
7.14
6.71
6.56
6.31
5.89
4.64
2.06
-1.47
-4.58
-5.47
-3.83
0.05
5.44
11.51
17.09
21.32
24.00
25.45
26.26
26.41
25.88
24.84
23.68
22.44
20.93
18.85
15.94
12.27
8.07
3.88
0.32
-2.30
-4.24
-6.23
-8.95
-12.63
-16.74
-20.19
-21.78
-20.76
-17.09
-11.46
-4.94
1.50
7.23
12.02
15.84
18.60
20.21
20.63
20.08
18.98
17.79
16.72
15.68
14.31
12.37
9.92
7.38
5.29
3.96
3.34
3.09
2.81
2.29
1.53
0.63
-0.43
-1.72
-3.20
-4.46
-4.72
-2.95
1.64
9.18
18.87
29.21
38.43
45.19
49.08
50.79
51.91
54.25
58.98
66.16
74.59
82.44
88.14
91.08
91.69
90.89
89.32
86.92
83.00
76.79
67.89
56.18
41.64
24.00
3.02
-20.87
-46.15
-70.25
-90.58
-105.56
-115.31
-121.30
-125.47
-129.10
-132.57
-135.77
-138.83
-142.51
-148.09
-156.59
-168.04
-181.17
-193.54
-202.09
-203.76
-196.12
-178.00
-149.98
-114.56
-75.84
-38.51
-6.64
17.38
33.15
41.90
45.54
45.69
43.28
38.72
32.45
25.50
19.45
15.93
16.01
19.60
25.61
32.47
38.83
44.03
48.17
51.69
54.76
57.08
57.94
56.75
53.50
48.82
43.78
39.33
35.95
33.48
31.40
29.09
26.19
22.61
18.50
14.04
9.42
4.80
0.41
-3.46
-6.49
-8.45
-9.24
-9.00
-8.10
-7.21
-7.11
-8.53
-11.80
-16.59
-21.81
-25.82
-26.78
-23.30
-14.97
-2.75
10.96
22.78
29.23
27.87
18.30
2.53
-15.42
-30.73
-39.30
-38.97
-30.14
-15.38
1.61
17.31
29.35
36.88
40.40
41.17
40.59
39.75
39.30
39.49
40.33
41.62
43.03
44.09
44.26
43.10
40.46
36.60
32.21
28.13
25.12
23.56
23.39
24.10
25.05
25.72
26.01
26.25
27.04
28.97
32.34
37.05
42.71
48.91
55.44
62.43
70.22
78.96
88.16
96.40
101.38
100.36
90.96
71.90
43.55
8.11
-30.77
-68.65
-101.28
-125.60
-140.35
-146.34
-145.97
-142.36
-138.23
-135.03
-132.70
-130.00
-125.25
-117.02
-104.59
-88.02
-68.06
-45.88
-22.90
-0.43
20.57
39.70
57.11
73.25
88.30
101.80
112.43
118.36
117.90
110.28
96.17
77.74
58.06
40.23
26.49
17.73
13.54
12.66
13.62
15.24
16.75
17.77
18.09
17.60
16.28
14.29
11.94
9.57
7.40
5.42
3.47
1.35
-1.04
-3.63
-6.13
-8.10
-9.02
-8.46
-6.35
-3.05
0.48
2.98
3.31
0.91
-3.86
-9.84
-15.47
-19.52
-21.49
-21.79
-21.32
-21.04
-21.49
-22.78
-24.67
-26.92
-29.44
-32.33
-35.68
-39.44
-43.35
-47.06
-50.15
-52.35
-53.46
-53.38
-52.06
-49.57
-46.09
-41.93
-37.45
-33.00
-28.85
-25.17
-22.04
-19.33
-16.72
-13.62
-9.36
-3.45
4.18
12.97
21.89
29.75
35.57
38.84
39.56
38.00
34.61
29.80
24.05
17.91
12.01
6.83
2.47
-1.40
-5.30
-9.41
-13.19
-15.31
-14.20
-8.80
0.65
12.61
24.75
34.85
41.59
44.70
44.70
42.24
37.85
31.97
25.34
19.19
15.09
14.33
17.28
23.09
29.99
35.91
39.27
39.39
36.57
31.71
25.97
20.50
16.35
14.42
15.39
19.44
26.12
34.17
41.75
46.73
47.22
41.98
30.68
14.14
-5.83
-26.73
-45.89
-61.05
-70.80
-74.78
-73.43
-67.67
-58.55
-47.12
-34.47
-21.82
-10.36
-1.01
6.03
11.38
16.24
21.80
28.63
36.26
43.39
48.36
49.93
47.74
42.53
35.80
29.32
24.44
21.66
20.50
19.79
18.29
15.39
11.41
7.50
4.98
4.62
6.08
8.07
8.89
7.31
3.07
-3.05
-9.72
-15.73
-20.53
-24.22
-27.33
-30.29
-33.08
-35.30
-36.37
-35.96
-34.29
-32.06
-30.20
-29.39
-29.86
-31.36
-33.34
-35.30
-36.96
-38.37
-39.65
-40.89
-41.92
-42.32
-41.62
-39.44
-35.68
-30.59
-24.71
-18.64
-12.96
-7.94
-3.67
-0.01
3.17
5.98
8.34
10.04
10.83
10.55
9.17
6.91
4.21
1.55
-0.62
-2.08
-2.85
-3.23
-3.60
-4.27
-5.33
-6.61
-7.79
-8.59
-8.93
-9.02
-9.26
-10.07
-11.64
-13.87
-16.25
-18.03
-18.46
-17.00
-13.56
-8.55
-2.73
3.14
8.52
13.28
17.56
21.65
25.68
29.62
33.28
36.36
38.59
39.68
39.30
37.26
33.62
28.87
23.89
19.80
17.59
17.78
20.23
24.24
28.75
32.78
35.62
36.93
36.73
35.19
32.54
29.00
24.86
20.51
16.48
13.31
11.39
10.87
11.60
13.26
15.44
17.65
19.34
19.83
18.42
14.51
7.83
-1.36
-12.21
-23.44
-33.60
-41.45
-46.18
-47.59
-45.97
-41.96
-36.43
-30.31
-24.52
-19.89
-17.04
-16.26
-17.46
-20.25
-24.04
-28.34
-32.75
-36.95
-40.59
-43.22
-44.32
-43.49
-40.68
-36.22
-30.74
-24.97
-19.55
-14.87
-11.13
-8.35
-6.44
-5.31
-4.85
-4.91
-5.37
-6.05
-6.75
-7.20
-7.07
-5.97
-3.51
0.58
6.28
13.20
20.61
27.57
33.11
36.42
37.02
34.77
29.90
23.02
15.06
7.24
0.82
-3.16
-4.21
-2.47
1.39
6.54
12.25
18.06
23.66
28.66
32.45
34.30
33.68
30.47
25.22
18.87
12.40
6.48
1.32
-3.25
-7.49
-11.54
-15.40
-19.04
-22.52
-26.04
-29.86
-34.11
-38.65
-43.13
-47.18
-50.66
-53.73
-56.78
-60.09
-63.58
-66.73
-68.73
-68.78
-66.39
-61.50
-54.41
-45.80
-36.67
-28.31
-22.06
-18.98
-19.30
-22.17
-25.85
-28.37
-28.41
-25.74
-21.13
-15.80
-10.68
-6.11
-1.91
2.21
6.36
10.55
14.74
18.96
23.21
27.21
30.28
31.53
30.36
26.82
21.75
16.56
12.77
11.51
13.33
18.12
25.11
33.02
40.36
45.71
48.19
47.68
44.87
40.86
36.75
33.21
30.34
27.86
25.39
22.69
19.76
16.69
13.63
10.75
8.37
7.10
7.75
10.94
16.61
23.48
29.13
30.68
25.88
14.24
-2.49
-20.77
-36.47
-46.29
-48.74
-44.36
-35.16
-23.66
-12.13
-2.11
5.53
10.44
12.56
12.05
9.38
5.24
0.52
-3.83
-7.06
-8.74
-8.89
-7.93
-6.53
-5.38
-4.91
-5.16
-5.84
-6.49
-6.81
-6.78
-6.73
-7.23
-8.80
-11.72
-15.85
-20.68
-25.32
-28.81
-30.28
-29.19
-25.51
-19.70
-12.60
-5.14
1.89
7.99
12.92
16.62
19.01
19.98
19.51
17.77
15.24
12.61
10.57
9.52
9.39
9.60
9.43
8.28
6.01
2.93
-0.44
-3.68
-6.71
-9.74
-13.08
-16.86
-20.93
-24.91
-28.34
-30.78
-31.88
-31.31
-28.79
-24.11
-17.34
-8.93
0.36
9.57
17.85
24.58
29.51
32.71
34.48
35.25
35.47
35.45
35.37
35.25
35.02
34.57
33.75
32.37
30.23
27.19
23.21
18.49
13.42
8.39
3.61
-0.97
-5.66
-10.69
-16.08
-21.46
-26.27
-29.91
-32.05
-32.72
-32.25
-31.12
-29.81
-28.73
-28.28
-28.82
-30.67
-33.95
-38.53
-43.90
-49.23
-53.57
-56.04
-56.04
-53.38
-48.20
-40.94
-32.15
-22.42
-12.27
-2.17
7.45
16.15
23.44
28.80
31.74
31.94
29.36
24.36
17.82
10.97
5.18
1.60
0.82
2.73
6.64
11.51
16.37
20.55
23.74
25.91
27.12
27.43
26.85
25.50
23.62
21.57
19.73
18.36
17.50
16.96
16.44
15.65
14.41
12.75
10.78
8.70
6.62
4.53
2.27
-0.40
-3.67
-7.58
-11.92
-16.13
-19.47
-21.12
-20.47
-17.26
-11.72
-4.44
3.74
11.96
19.54
26.04
31.24
35.12
37.80
39.39
40.02
39.76
38.68
36.92
34.71
32.42
30.42
28.93
27.95
27.24
26.45
25.30
23.63
21.48
18.92
16.03
12.83
9.34
5.65
1.93
-1.65
-5.06
-8.44
-12.07
-16.12
-20.37
-24.12
-26.33
-25.98
-22.50
-16.02
-7.42
2.09
11.31
19.39
25.96
31.01
34.63
36.93
38.02
38.05
37.29
36.09
34.82
33.72
32.87
32.20
31.56
30.80
29.83
28.59
27.04
25.13
22.83
20.16
17.21
14.14
11.12
8.28
5.67
3.30
1.08
-1.14
-3.56
-6.44
-10.01
-14.34
-19.17
-23.91
-27.68
-29.55
-28.85
-25.31
-19.21
-11.27
-2.45
6.26
14.05
20.40
25.11
28.24
30.06
30.91
31.14
31.05
30.89
30.80
30.82
30.84
30.66
30.01
28.64
26.47
23.60
20.32
16.96
13.83
11.04
8.54
6.10
3.46
0.40
-3.17
-7.14
-11.27
-15.25
-18.85
-22.00
-24.82
-27.56
-30.46
-33.58
-36.69
-39.30
-40.74
-40.45
-38.08
-33.73
-27.80
-20.89
-13.64
-6.56
-0.02
5.70
10.40
13.91
16.13
17.16
17.29
16.96
16.60
16.49
16.66
16.95
17.08
16.77
15.93
14.57
12.84
10.93
9.00
7.14
5.30
3.39
1.32
-0.92
-3.31
-5.73
-8.05
-10.20
-12.19
-14.12
-16.18
-18.52
-21.25
-24.28
-27.30
-29.75
-30.98
-30.42
-27.79
-23.19
-17.09
-10.18
-3.15
3.44
9.25
14.08
17.82
20.39
21.72
21.87
21.01
19.51
17.83
16.37
15.39
14.91
14.74
14.60
14.23
13.49
12.41
11.08
9.68
8.30
6.96
5.62
4.20
2.65
0.98
-0.78
-2.61
-4.53
-6.58
-8.78
-11.11
-13.49
-15.89
-18.24
-20.58
-22.87
-24.98
-26.60
-27.28
-26.52
-24.02
-19.73
-13.97
-7.24
-0.19
6.59
12.66
17.69
21.50
24.00
25.27
25.58
25.32
24.95
24.77
24.89
25.17
25.30
25.03
24.29
23.21
22.09
21.28
20.94
21.03
21.26
21.21
20.55
19.15
17.15
14.88
12.75
11.03
9.86
9.25
9.12
9.39
9.96
10.74
11.68
12.95
14.97
18.30
23.24
29.43
35.70
40.30
41.71
39.35
33.99
27.42
21.60
17.72
15.69
14.40
12.43
8.90
3.82
-2.18
-8.36
-14.37
-20.32
-26.54
-33.03
-39.32
-44.52
-47.80
-48.83
-47.95
-46.06
-44.24
-43.27
-43.39
-44.27
-45.25
-45.69
-45.21
-43.83
-41.91
-39.95
-38.43
-37.67
-37.67
-38.22
-38.87
-39.02
-38.05
-35.47
-31.05
-24.96
-17.72
-10.09
-2.88
3.31
8.12
11.52
13.67
14.83
15.28
15.25
14.94
14.42
13.71
12.72
11.39
9.67
7.60
5.31
2.96
0.70
-1.41
-3.37
-5.24
-7.18
-9.36
-11.89
-14.82
-17.99
-21.10
-23.84
-26.05
-27.86
-29.60
-31.65
-34.12
-36.61
-38.34
-38.35
-35.97
-31.11
-24.34
-16.62
-8.97
-2.08
3.70
8.33
11.85
14.28
15.65
16.04
15.70
14.97
14.20
13.58
13.10
12.64
12.02
11.09
9.77
8.04
5.93
3.47
0.73
-2.18
-5.16
-8.12
-11.01
-13.82
-16.63
-19.54
-22.63
-26.00
-29.69
-33.64
-37.78
-41.83
-45.42
-47.97
-48.91
-47.76
-44.38
-38.98
-32.09
-24.39
-16.51
-8.93
-2.05
3.83
8.45
11.64
13.44
14.16
14.27
14.24
14.41
14.86
15.50
16.15
16.62
16.83
16.72
16.28
15.50
14.43
13.09
11.54
9.78
7.79
5.55
3.09
0.52
-2.02
-4.46
-6.81
-9.22
-11.87
-14.79
-17.71
-20.09
-21.26
-20.66
-18.07
-13.66
-7.96
-1.65
4.60
10.23
14.85
18.26
20.43
21.44
21.48
20.78
19.62
18.23
16.84
15.62
14.68
14.04
13.55
13.01
12.18
10.90
9.18
7.13
4.92
2.66
0.34
-2.08
-4.62
-7.20
-9.70
-12.06
-14.34
-16.71
-19.32
-22.12
-24.72
-26.51
-26.85
-25.34
-21.97
-17.11
-11.34
-5.26
0.59
5.77
9.95
12.91
14.57
15.11
14.88
14.31
13.71
13.22
12.77
12.23
11.52
10.70
9.91
9.21
8.56
7.78
6.66
5.08
3.07
0.74
-1.77
-4.38
-7.09
-9.88
-12.73
-15.58
-18.35
-21.03
-23.59
-25.92
-27.73
-28.56
-27.87
-25.28
-20.73
-14.59
-7.54
-0.45
5.92
11.09
14.86
17.29
18.54
18.81
18.30
17.24
15.89
14.56
13.46
12.68
12.11
11.53
10.68
9.43
7.79
5.93
4.01
2.16
0.36
-1.47
-3.44
-5.59
-7.90
-10.33
-12.90
-15.68
-18.67
-21.63
-24.06
-25.23
-24.53
-21.67
-16.87
-10.74
-4.08
2.44
8.42
13.70
18.23
21.88
24.50
25.93
26.16
25.33
23.73
21.74
19.67
17.74
16.02
14.42
12.77
10.86
8.63
6.14
3.62
1.34
-0.54
-2.05
-3.43
-5.00
-7.04
-9.74
-13.13
-17.08
-21.29
-25.25
-28.28
-29.69
-28.88
-25.65
-20.22
-13.21
-5.42
2.35
9.46
15.40
19.81
22.41
23.10
22.00
19.49
16.17
12.72
9.72
7.57
6.32
5.78
5.56
5.33
4.87
4.21
3.49
2.88
2.39
1.84
0.91
-0.75
-3.38
-7.05
-11.63
-16.82
-22.10
-26.77
-29.99
-31.02
-29.38
-25.12
-18.73
-11.08
-3.08
4.49
11.12
16.54
20.63
23.31
24.56
24.42
23.08
20.86
18.27
15.86
14.06
13.09
12.89
13.15
13.49
13.63
13.40
12.80
11.87
10.61
8.91
6.61
3.59
-0.14
-4.39
-8.80
-12.99
-16.64
-19.56
-21.71
-23.09
-23.60
-23.02
-20.98
-17.24
-11.86
-5.29
1.63
8.06
13.39
17.40
20.20
22.06
23.15
23.52
23.22
22.38
21.31
20.45
20.18
20.60
21.53
22.51
23.00
22.59
21.10
18.58
15.23
11.31
7.06
2.73
-1.37
-4.90
-7.56
-9.21
-9.97
-10.24
-10.62
-11.69
-13.82
-17.08
-21.10
-25.24
-28.67
-30.59
-30.44
-27.97
-23.36
-17.11
-9.90
-2.48
4.47
10.41
14.99
18.04
19.58
19.78
18.91
17.27
15.10
12.62
10.04
7.59
5.50
3.95
2.97
2.41
1.97
1.32
0.27
-1.21
-2.94
-4.73
-6.44
-8.12
-9.94
-12.08
-14.64
-17.59
-20.85
-24.36
-28.08
-31.91
-35.58
-38.58
-40.24
-39.93
-37.31
-32.51
-26.16
-19.22
-12.65
-7.19
-3.18
-0.66
0.49
0.44
-0.63
-2.42
-4.40
-5.81
-5.92
-4.24
-0.77
4.02
9.42
14.79
19.80
24.42
28.77
32.91
36.65
39.63
41.44
41.87
41.00
39.19
36.97
34.77
32.71
30.55
27.71
23.59
17.85
10.70
2.87
-4.64
-10.88
-15.27
-17.69
-18.36
-17.68
-16.00
-13.68
-11.04
-8.43
-6.15
-4.36
-3.07
-2.12
-1.33
-0.51
0.42
1.53
2.81
4.29
5.95
7.63
9.08
9.95
9.96
8.89
6.61
3.19
-1.17
-6.10
-11.24
-16.27
-21.05
-25.51
-29.70
-33.71
-37.50
-40.70
-42.62
-42.50
-39.84
-34.64
-27.21
-18.38
-9.27
-1.02
5.67
10.71
14.42
17.19
19.33
21.22
22.81
23.59
22.76
19.86
15.43
10.81
7.71
7.72
12.06
20.58
31.81
43.49
53.52
60.70
64.25
63.40
55.54
40.19
20.23
1.07
-12.78
-21.24
-26.24
-29.76
-33.25
-37.15
-39.03
-36.78
-29.32
-17.32
-2.86
11.73
24.56
34.61
41.79
46.74
49.64
50.04
47.11
40.38
30.53
19.04
7.54
-2.73
-11.07
-17.52
-22.50
-26.49
-29.71
-32.10
-33.47
-33.96
-34.00
-34.24
-35.46
-38.26
-42.92
-49.29
-56.70
-64.01
-70.09
-74.25
-76.46
-77.33
-77.71
-78.26
-79.11
-79.74
-78.84
-75.12
-67.96
-57.88
-46.33
-34.96
-24.96
-16.66
-9.48
-1.77
8.15
21.29
37.62
56.16
75.29
92.96
106.78
112.43
106.08
87.08
59.93
32.04
10.18
-1.65
-2.67
5.16
17.10
30.56
43.48
54.26
61.62
64.74
63.42
57.94
48.83
36.53
22.80
9.67
-0.92
-7.57
-9.61
-7.19
-1.27
6.36
13.53
18.53
20.07
17.77
12.02
3.84
-5.44
-14.54
-22.55
-28.98
-33.46
-35.97
-36.68
-35.95
-34.29
-32.33
-30.64
-29.68
-29.65
-30.35
-31.42
-32.42
-33.00
-33.03
-32.65
-32.20
-32.09
-32.65
-33.90
-35.65
-37.37
-38.33
-37.71
-34.90
-29.69
-22.40
-13.75
-4.71
3.82
11.23
17.27
21.93
25.32
27.58
28.80
29.18
29.02
28.78
28.94
29.84
31.54
33.74
35.88
37.29
37.38
35.85
32.75
28.40
23.36
18.08
12.81
7.52
1.94
-4.24
-11.21
-18.93
-27.11
-35.28
-42.79
-48.98
-53.07
-54.50
-52.92
-48.45
-41.71
-33.65
-25.38
-17.77
-11.32
-6.11
-1.95
1.39
4.05
6.02
7.24
7.70
7.56
7.11
6.73
6.74
7.33
8.50
10.12
11.90
13.47
14.49
14.68
13.87
12.08
9.42
6.11
2.42
-1.39
-5.08
-8.46
-11.43
-13.92
-15.87
-17.20
-17.71
-17.14
-15.21
-11.80
-7.02
-1.28
4.80
10.55
15.46
19.26
21.91
23.60
24.57
24.99
24.96
24.48
23.56
22.28
20.82
19.40
18.16
17.08
15.99
14.66
12.98
11.04
9.04
7.20
5.55
3.90
1.95
-0.55
-3.65
-7.20
-10.96
-14.74
-18.42
-21.90
-25.00
-27.41
-28.69
-28.50
-26.60
-22.98
-17.88
-11.73
-5.16
1.16
6.57
10.64
13.21
14.43
14.68
14.33
13.71
13.04
12.46
12.08
12.01
12.22
12.62
13.02
13.17
12.96
12.35
11.44
10.28
8.92
7.29
5.37
3.17
0.75
-1.76
-4.25
-6.63
-8.76
-10.41
-11.24
-10.82
-8.85
-5.24
-0.20
5.85
12.43
19.14
25.68
31.83
37.30
41.76
44.91
46.61
47.05
46.64
45.94
45.25
44.51
43.24
40.74
36.41
30.06
22.07
13.35
5.08
-1.57
-5.87
-7.71
-7.62
-6.66
-6.07
-6.98
-10.13
-15.70
-23.26
-31.82
-40.00
-46.32
-49.57
-49.13
-45.13
-38.41
-30.23
-21.91
-14.47
-8.48
-4.11
-1.29
0.10
0.23
-0.65
-2.11
-3.54
-4.31
-4.01
-2.67
-0.79
0.86
1.65
1.31
0.04
-1.64
-3.17
-4.25
-4.88
-5.34
-5.99
-7.07
-8.72
-10.90
-13.53
-16.47
-19.52
-22.37
-24.60
-25.73
-25.40
-23.45
-20.03
-15.56
-10.54
-5.50
-0.81
3.26
6.54
8.88
10.18
10.46
9.90
8.86
7.80
7.11
6.96
7.21
7.52
7.44
6.68
5.23
3.35
1.47
-0.03
-0.94
-1.31
-1.42
-1.63
-2.31
-3.73
-5.93
-8.76
-11.76
-14.30
-15.66
-15.29
-13.04
-9.22
-4.49
0.32
4.51
7.64
9.60
10.52
10.64
10.24
9.56
8.82
8.18
7.76
7.57
7.54
7.57
7.49
7.14
6.39
5.14
3.44
1.46
-0.56
-2.40
-3.94
-5.29
-6.64
-8.23
-10.17
-12.39
-14.59
-16.43
-17.52
-17.57
-16.45
-14.22
-11.11
-7.47
-3.64
0.16
3.86
7.48
11.01
14.29
17.02
18.85
19.56
19.21
18.13
16.77
15.52
14.51
13.65
12.68
11.43
9.88
8.22
6.75
5.68
5.00
4.44
3.59
2.06
-0.35
-3.59
-7.32
-11.07
-14.34
-16.65
-17.64
-17.08
-14.90
-11.26
-6.50
-1.09
4.40
9.42
13.50
16.34
17.84
18.14
17.53
16.38
15.04
13.74
12.55
11.44
10.34
9.20
8.00
6.73
5.42
4.10
2.81
1.59
0.42
-0.85
-2.41
-4.48
-7.21
-10.58
-14.34
-18.04
-21.09
-22.88
-22.96
-21.16
-17.68
-13.01
-7.82
-2.73
1.81
5.60
8.59
10.81
12.28
13.01
13.02
12.41
11.41
10.37
9.64
9.45
9.77
10.27
10.50
10.01
8.61
6.44
3.84
1.19
-1.24
-3.47
-5.64
-7.92
-10.35
-12.84
-15.16
-17.13
-18.61
-19.48
-19.59
-18.73
-16.72
-13.49
-9.26
-4.50
0.17
4.16
7.13
9.03
10.07
10.56
10.73
10.74
10.64
10.50
10.34
10.21
10.07
9.81
9.26
8.27
6.86
5.16
3.43
1.88
0.57
-0.62
-1.92
-3.52
-5.52
-7.83
-10.21
-12.37
-13.96
-14.65
-14.12
-12.20
-8.93
-4.60
0.29
5.21
9.74
13.63
16.79
19.17
20.69
21.30
21.00
19.94
18.37
16.55
14.71
12.96
11.35
9.89
8.53
7.22
5.82
4.19
2.24
0.02
-2.31
-4.61
-6.83
-9.06
-11.47
-14.16
-17.00
-19.58
-21.37
-21.88
-20.88
-18.51
-15.19
-11.45
-7.71
-4.18
-0.86
2.29
5.20
7.65
9.36
10.12
9.95
9.11
8.01
7.00
6.25
5.66
5.03
4.15
2.98
1.66
0.47
-0.43
-1.03
-1.49
-2.09
-3.06
-4.52
-6.48
-8.88
-11.65
-14.66
-17.59
-19.93
-21.02
-20.26
-17.33
-12.40
-6.06
0.78
7.24
12.65
16.63
19.07
19.99
19.48
17.72
15.05
11.99
9.21
7.31
6.59
6.96
7.97
8.91
9.19
8.46
6.76
4.43
1.89
-0.52
-2.73
-4.86
-7.20
-9.94
-13.16
-16.65
-20.04
-22.75
-24.23
-24.07
-22.13
-18.57
-13.86
-8.58
-3.32
1.46
5.47
8.58
10.70
11.82
12.03
11.57
10.76
9.97
9.45
9.31
9.47
9.78
10.06
10.11
9.77
8.89
7.39
5.34
2.92
0.42
-1.90
-3.91
-5.64
-7.20
-8.71
-10.26
-11.90
-13.68
-15.56
-17.43
-18.98
-19.80
-19.45
-17.75
-14.80
-11.02
-6.90
-2.85
0.95
4.44
7.56
10.10
11.78
12.41
12.01
10.87
9.42
8.04
6.93
6.07
5.34
4.59
3.77
2.85
1.82
0.67
-0.59
-1.90
-3.16
-4.26
-5.16
-5.96
-6.83
-7.96
-9.47
-11.30
-13.27
-15.08
-16.34
-16.69
-15.85
-13.72
-10.43
-6.27
-1.70
2.82
6.91
10.32
12.91
14.58
15.36
15.28
14.46
13.09
11.45
9.77
8.31
7.20
6.47
6.02
5.61
4.99
3.99
2.58
0.91
-0.81
-2.42
-3.90
-5.31
-6.81
-8.46
-10.27
-12.19
-14.19
-16.27
-18.35
-20.22
-21.46
-21.57
-20.17
-17.20
-12.96
-8.06
-3.17
1.12
4.56
7.10
8.85
9.94
10.46
10.52
10.21
9.70
9.16
8.72
8.41
8.22
8.10
7.96
7.77
7.46
6.98
6.24
5.19
3.82
2.17
0.28
-1.77
-3.93
-6.16
-8.39
-10.59
-12.81
-15.13
-17.56
-19.99
-22.03
-23.08
-22.58
-20.20
-16.03
-10.61
-4.72
0.82
5.39
8.69
10.72
11.64
11.77
11.40
10.78
10.09
9.41
8.82
8.32
7.92
7.57
7.20
6.73
6.12
5.42
4.69
4.01
3.36
2.65
1.74
0.51
-1.08
-3.02
-5.22
-7.59
-10.04
-12.48
-14.79
-16.81
-18.37
-19.24
-19.20
-18.08
-15.78
-12.38
-8.15
-3.51
1.06
5.11
8.33
10.57
11.87
12.34
12.19
11.64
10.82
9.90
8.96
8.13
7.50
7.12
6.93
6.81
6.56
5.98
4.97
3.52
1.74
-0.23
-2.25
-4.28
-6.29
-8.31
-10.31
-12.25
-14.07
-15.70
-17.05
-17.99
-18.37
-17.99
-16.65
-14.28
-10.89
-6.69
-2.02
2.76
7.23
10.98
13.67
15.04
14.97
13.64
11.44
8.97
6.85
5.45
4.84
4.81
4.97
5.01
4.81
4.47
4.15
3.94
3.78
3.47
2.76
1.49
-0.40
-2.89
-5.91
-9.40
-13.22
-17.04
-20.38
-22.61
-23.24
-22.01
-19.00
-14.61
-9.41
-3.99
1.20
5.84
9.72
12.76
14.92
16.22
16.74
16.61
16.02
15.13
14.16
13.28
12.62
12.17
11.80
11.30
10.44
9.09
7.25
5.07
2.82
0.74
-0.96
-2.25
-3.24
-4.19
-5.39
-7.10
-9.41
-12.21
-15.13
-17.56
-18.91
-18.69
-16.78
-13.37
-8.96
-4.12
0.63
4.95
8.70
11.91
14.68
17.12
19.34
21.33
22.99
24.13
24.52
24.02
22.66
20.60
18.10
15.39
12.59
9.74
6.88
4.04
1.34
-1.14
-3.35
-5.36
-7.27
-9.18
-11.18
-13.29
-15.57
-18.00
-20.51
-22.87
-24.69
-25.48
-24.82
-22.54
-18.81
-14.12
-9.12
-4.42
-0.40
2.76
5.08
6.63
7.51
7.82
7.68
7.24
6.68
6.15
5.72
5.40
5.13
4.80
4.26
3.43
2.26
0.82
-0.77
-2.40
-4.02
-5.62
-7.25
-8.95
-10.70
-12.45
-14.17
-15.87
-17.63
-19.46
-21.20
-22.50
-22.90
-22.01
-19.63
-15.90
-11.18
-5.95
-0.63
4.46
9.10
13.14
16.42
18.77
20.14
20.64
20.51
20.07
19.57
19.11
18.64
18.07
17.30
16.30
15.09
13.67
11.99
10.02
7.76
5.33
2.90
0.65
-1.33
-3.09
-4.86
-6.89
-9.39
-12.39
-15.64
-18.64
-20.78
-21.45
-20.33
-17.41
-13.05
-7.79
-2.24
3.09
7.86
11.87
15.04
17.31
18.65
19.10
18.75
17.81
16.52
15.19
14.08
13.32
12.85
12.50
12.02
11.22
10.03
8.50
6.74
4.81
2.73
0.45
-2.04
-4.64
-7.18
-9.47
-11.43
-13.05
-14.41
-15.45
-15.99
-15.74
-14.49
-12.24
-9.27
-6.06
-2.99
-0.20
2.40
5.00
7.71
10.35
12.54
13.94
14.40
14.06
13.29
12.46
11.77
11.15
10.44
9.49
8.32
7.08
6.03
5.34
5.01
4.93
4.86
4.59
3.98
2.95
1.46
-0.55
-3.16
-6.38
-10.12
-14.15
-18.10
-21.47
-23.79
-24.65
-23.80
-21.26
-17.26
-12.25
-6.76
-1.31
3.69
7.96
11.31
13.66
14.96
15.26
14.68
13.44
11.81
10.02
8.29
6.77
5.57
4.74
4.31
4.18
4.21
4.16
3.81
3.01
1.73
0.10
-1.69
-3.40
-4.89
-6.14
-7.28
-8.54
-10.14
-12.18
-14.58
-17.07
-19.25
-20.64
-20.87
-19.64
-16.93
-12.90
-7.95
-2.65
2.48
6.94
10.47
12.94
14.37
14.92
14.80
14.33
13.79
13.38
13.18
13.11
12.98
12.64
11.97
11.01
9.83
8.54
7.21
5.85
4.42
2.85
1.07
-0.88
-2.95
-5.00
-7.00
-8.96
-10.98
-13.14
-15.41
-17.56
-19.18
-19.78
-19.00
-16.70
-13.06
-8.49
-3.53
1.29
5.56
9.02
11.56
13.19
14.00
14.09
13.59
12.67
11.53
10.42
9.56
9.07
8.95
9.06
9.17
9.06
8.61
7.81
6.68
5.20
3.26
0.74
-2.40
-5.99
-9.65
-12.91
-15.41
-17.09
-18.15
-18.97
-19.82
-20.64
-21.08
-20.59
-18.78
-15.61
-11.43
-6.83
-2.35
1.71
5.33
8.62
11.62
14.16
15.96
16.70
16.33
15.00
13.13
11.18
9.56
8.46
7.88
7.69
7.69
7.68
7.47
6.93
5.92
4.36
2.21
-0.47
-3.56
-6.86
-10.14
-13.19
-15.82
-17.86
-19.24
-19.92
-19.91
-19.23
-17.88
-15.83
-13.09
-9.73
-5.92
-1.98
1.72
4.84
7.20
8.82
9.83
10.44
10.79
10.92
10.83
10.59
10.29
10.06
9.92
9.79
9.50
8.86
7.86
6.63
5.43
4.45
3.73
3.08
2.20
0.81
-1.20
-3.75
-6.68
-9.73
-12.68
-15.28
-17.28
-18.39
-18.43
-17.32
-15.14
-12.13
-8.58
-4.78
-1.00
2.56
5.73
8.36
10.36
11.67
12.29
12.34
11.97
11.36
10.66
9.97
9.28
8.49
7.51
6.27
4.84
3.32
1.83
0.46
-0.80
-2.01
-3.28
-4.67
-6.23
-7.95
-9.82
-11.81
-13.80
-15.61
-16.96
-17.58
-17.17
-15.57
-12.84
-9.23
-5.19
-1.18
2.36
5.21
7.32
8.73
9.53
9.78
9.53
8.90
8.03
7.14
6.39
5.83
5.39
4.99
4.52
3.92
3.21
2.41
1.52
0.50
-0.73
-2.21
-3.96
-5.91
-7.98
-10.07
-12.08
-13.84
-15.13
-15.65
-15.16
-13.51
-10.78
-7.20
-3.08
1.24
5.45
9.28
12.44
14.64
15.63
15.34
13.95
11.87
9.59
7.59
6.12
5.18
4.58
4.01
3.15
1.78
-0.11
-2.37
-4.70
-6.85
-8.66
-10.22
-11.79
-13.70
-16.20
-19.28
-22.65
-25.73
-27.92
-28.71
-27.88
-25.53
-22.01
-17.72
-13.12
-8.56
-4.32
-0.65
2.26
4.30
5.47
5.90
5.82
5.50
5.20
5.13
5.36
5.84
6.36
6.71
6.70
6.29
5.51
4.46
3.19
1.61
-0.43
-3.09
-6.41
-10.26
-14.27
-17.92
-20.64
-21.91
-21.42
-19.15
-15.41
-10.75
-5.80
-1.14
2.79
5.73
7.60
8.47
8.58
8.28
7.96
7.97
8.52
9.57
10.88
12.12
12.97
13.27
13.06
12.53
11.98
11.64
11.65
11.93
12.26
12.25
11.51
9.77
7.05
3.65
0.23
-2.43
-3.62
-2.92
-0.32
3.73
8.53
13.37
17.64
21.00
23.27
24.38
24.32
23.16
21.16
18.70
16.32
14.46
13.31
12.73
12.30
11.57
10.26
8.39
6.23
4.19
2.52
1.25
0.16
-1.09
-2.82
-5.20
-8.22
-11.67
-15.14
-18.17
-20.30
-21.16
-20.59
-18.58
-15.28
-10.90
-5.68
0.10
6.06
11.69
16.34
19.41
20.51
19.63
17.16
13.82
10.43
7.70
6.01
5.38
5.49
5.87
6.00
5.61
4.66
3.35
2.00
0.84
-0.09
-0.97
-2.12
-3.83
-6.28
-9.43
-13.05
-16.71
-19.93
-22.14
-22.90
-21.96
-19.30
-15.18
-10.08
-4.56
0.84
5.74
9.90
13.18
15.50
16.77
16.97
16.22
14.85
13.33
12.11
11.46
11.33
11.37
11.17
10.45
9.18
7.61
6.02
4.62
3.36
2.09
0.57
-1.33
-3.64
-6.32
-9.22
-12.16
-14.83
-16.78
-17.57
-16.88
-14.61
-10.98
-6.43
-1.53
3.17
7.26
10.45
12.63
13.78
14.00
13.46
12.37
11.00
9.60
8.39
7.52
7.01
6.71
6.43
5.90
5.01
3.79
2.38
0.98
-0.35
-1.68
-3.19
-5.08
-7.46
-10.21
-13.12
-15.89
-18.18
-19.73
-20.29
-19.72
-17.93
-14.96
-10.99
-6.30
-1.28
3.67
8.16
11.85
14.57
16.30
17.20
17.58
17.75
17.93
18.14
18.27
18.13
17.59
16.63
15.29
13.65
11.77
9.67
7.40
5.05
2.72
0.45
-1.86
-4.36
-7.20
-10.34
-13.48
-16.12
-17.72
-17.89
-16.58
-14.06
-10.84
-7.47
-4.40
-1.87
0.03
1.33
2.08
2.38
2.31
2.04
1.74
1.55
1.50
1.56
1.59
1.52
1.32
1.00
0.63
0.25
-0.11
-0.43
-0.68
-0.87
-1.09
-1.50
-2.34
-3.77
-5.83
-8.32
-10.91
-13.14
-14.61
-15.04
-14.28
-12.33
-9.30
-5.39
-0.93
3.71
8.10
11.73
14.17
15.15
14.75
13.44
11.97
11.09
11.17
12.09
13.20
13.66
12.94
11.05
8.59
6.44
5.26
5.25
6.04
6.94
7.21
6.58
5.37
4.40
4.58
6.51
10.11
14.57
18.41
19.77
17.12
9.77
-1.80
-16.19
-31.50
-45.76
-57.60
-66.66
-74.07
-81.60
-90.94
-102.95
-117.29
-132.38
-145.47
-153.10
-152.06
-140.92
-120.29
-92.97
-63.09
-34.68
-10.24
10.16
28.35
48.22
69.63
87.93
96.37
91.52
75.97
56.58
40.64
32.20
30.90
32.77
33.52
30.59
24.04
15.72
7.94
2.77
1.64
5.03
11.46
19.55
27.28
33.03
36.11
37.00
37.07
37.69
39.31
40.97
41.06
37.99
31.18
21.20
9.34
-2.87
-13.92
-22.38
-26.92
-25.21
-15.89
0.70
22.07
43.89
61.33
70.71
70.81
63.28
52.03
41.43
34.93
33.88
37.33
42.75
47.13
48.19
45.04
38.29
29.23
19.41
10.03
1.68
-5.52
-11.68
-16.82
-20.76
-23.27
-24.35
-24.38
-23.94
-23.57
-23.38
-22.98
-21.81
-19.54
-16.49
-13.51
-11.57
-11.34
-13.04
-16.46
-21.28
-26.96
-32.54
-36.70
-37.95
-35.26
-28.50
-18.46
-6.61
5.47
16.56
25.86
32.79
36.82
37.56
35.22
30.72
25.45
20.52
16.45
13.21
10.49
8.04
5.98
4.65
4.26
4.59
4.59
3.43
1.25
-0.82
-1.38
0.42
4.50
9.79
14.76
17.01
15.30
10.14
3.16
-4.26
-11.78
-19.95
-29.61
-41.25
-56.17
-74.03
-92.23
-106.95
-115.22
-116.20
-111.12
-102.66
-94.05
-90.43
-95.09
-107.93
-125.92
-144.98
-161.33
-171.70
-173.74
-152.87
-104.66
-38.76
26.67
77.31
107.84
119.65
117.40
106.51
92.11
76.22
60.38
46.64
37.21
33.02
32.35
34.16
37.09
39.95
40.39
37.38
32.05
27.06
24.84
26.45
31.72
39.36
47.60
53.70
55.79
53.58
48.07
40.78
33.10
26.27
21.08
17.91
16.21
15.24
14.44
13.61
12.60
11.29
9.63
7.60
5.20
2.36
-0.96
-4.52
-7.96
-10.90
-13.16
-14.73
-15.86
-16.87
-17.96
-19.18
-20.33
-21.08
-21.03
-19.90
-17.61
-14.34
-10.47
-6.42
-2.52
1.00
3.96
6.28
7.83
8.55
8.49
7.84
7.00
6.35
6.19
6.55
7.24
7.94
8.31
8.22
7.70
6.86
5.83
4.60
3.10
1.23
-1.05
-3.63
-6.29
-8.85
-11.12
-12.99
-14.39
-15.19
-15.24
-14.41
-12.65
-10.02
-6.81
-3.33
0.04
3.01
5.42
7.20
8.33
8.87
8.88
8.52
7.97
7.43
6.97
6.57
6.10
5.39
4.35
3.06
1.68
0.41
-0.63
-1.45
-2.14
-2.83
-3.62
-4.57
-5.73
-7.16
-8.91
-10.86
-12.76
-14.21
-14.75
-14.08
-12.13
-9.15
-5.59
-1.93
1.44
4.31
6.62
8.35
9.50
10.07
10.05
9.52
8.69
7.77
7.01
6.54
6.39
6.44
6.51
6.36
5.72
4.44
2.54
0.21
-2.18
-4.30
-5.96
-7.18
-8.13
-9.13
-10.41
-12.03
-13.80
-15.39
-16.43
-16.61
-15.72
-13.74
-10.85
-7.39
-3.75
-0.26
2.79
5.16
6.76
7.86
8.86
10.11
11.78
13.91
16.51
19.46
22.51
25.31
27.98
30.57
32.78
34.00
33.78
32.17
29.66
26.89
24.42
23.28
23.95
25.91
27.88
28.79
28.62
28.32
29.26
32.55
39.73
51.31
66.49
83.41
100.11
115.01
126.95
134.92
131.00
111.09
78.11
41.29
9.58
-13.44
-29.46
-42.12
-54.17
-66.18
-76.02
-81.27
-80.85
-76.22
-70.69
-68.02
-70.86
-80.04
-93.60
-108.02
-120.26
-128.17
-130.82
-128.08
-120.16
-107.18
-89.42
-67.81
-41.29
-13.03
12.10
30.59
43.16
51.50
56.29
57.50
53.45
43.86
29.29
11.79
-5.72
-20.41
-30.42
-34.78
-33.42
-27.07
-17.02
-5.30
6.21
16.13
23.62
28.34
30.62
31.23
30.82
29.77
27.81
24.85
21.29
17.86
15.15
13.34
12.18
11.05
9.48
7.43
5.44
4.33
4.53
5.65
6.80
7.10
6.29
4.87
3.73
3.64
4.71
6.25
7.12
6.26
3.27
-1.52
-7.17
-12.57
-16.75
-19.18
-19.89
-19.48
-18.99
-19.47
-21.52
-24.75
-27.75
-28.54
-25.56
-18.53
-8.83
0.82
7.48
9.13
5.39
-2.53
-12.53
-22.60
-31.39
-38.27
-43.07
-45.61
-45.49
-42.29
-35.83
-26.56
-15.53
-4.12
6.34
14.93
21.27
25.36
27.39
27.59
26.16
23.42
19.80
15.81
11.97
8.75
6.44
5.29
5.42
6.76
8.93
11.25
12.91
13.35
12.55
11.12
9.98
9.90
11.08
12.94
14.39
14.39
12.46
9.01
5.12
2.12
1.09
2.43
5.83
10.47
15.41
19.89
23.52
26.07
27.50
27.96
27.75
27.26
26.96
27.30
28.65
31.24
34.84
38.86
42.54
45.16
46.14
45.29
42.95
40.08
37.88
36.91
37.16
38.00
38.44
37.35
33.79
27.39
18.48
7.98
-3.51
-15.52
-27.74
-39.79
-51.34
-61.97
-71.20
-78.39
-80.38
-75.19
-63.61
-49.18
-35.64
-25.09
-17.95
-13.50
-10.53
-7.63
-4.46
-0.23
5.74
13.78
23.41
33.11
40.55
43.29
39.66
28.94
12.03
-8.00
-26.69
-39.81
-44.87
-41.77
-32.41
-19.70
-6.72
4.45
12.92
18.59
21.56
21.69
18.67
12.39
3.24
-7.92
-19.74
-30.70
-39.58
-45.70
-48.94
-49.62
-48.21
-45.20
-41.13
-36.53
-31.99
-28.17
-25.74
-25.17
-26.57
-29.56
-33.39
-37.20
-40.26
-42.19
-43.05
-43.19
-43.00
-42.73
-42.31
-41.39
-39.43
-35.97
-30.74
-23.87
-15.78
-7.11
1.48
9.52
16.74
23.09
28.51
32.96
36.26
38.23
38.75
37.82
35.61
32.36
28.48
24.43
20.66
17.56
15.40
14.28
14.06
14.50
15.28
16.06
16.62
16.81
16.55
15.74
14.38
12.48
10.20
7.80
5.56
3.66
2.22
1.16
0.29
-0.52
-1.37
-2.22
-2.97
-3.61
-4.27
-5.17
-6.55
-8.54
-11.02
-13.72
-16.26
-18.38
-19.96
-21.11
-22.10
-23.25
-24.74
-26.66
-28.80
-30.80
-32.16
-32.45
-31.44
-29.22
-26.18
-22.84
-19.64
-16.88
-14.67
-13.11
-12.32
-12.47
-13.65
-15.79
-18.67
-21.98
-25.42
-28.75
-31.75
-34.15
-35.65
-35.88
-34.53
-31.47
-26.73
-20.50
-13.06
-4.75
4.09
13.07
21.76
29.69
36.47
41.85
45.67
47.96
48.81
48.33
46.64
43.86
40.21
36.08
31.99
28.56
26.29
25.41
25.85
27.21
29.01
30.76
32.18
33.12
33.51
33.27
32.36
30.76
28.57
26.03
23.45
21.06
18.98
17.14
15.37
13.49
11.39
9.09
6.70
4.38
2.25
0.33
-1.49
-3.41
-5.65
-8.31
-11.32
-14.40
-17.21
-19.52
-21.31
-22.86
-24.53
-26.59
-28.97
-31.21
-32.61
-32.45
-30.23
-25.76
-19.18
-10.93
-1.66
7.73
16.27
23.10
27.76
30.48
32.11
33.87
36.72
40.96
46.13
51.27
55.52
58.38
59.91
60.33
59.72
57.89
54.50
49.34
42.59
34.84
26.86
19.34
12.66
6.89
1.92
-2.45
-6.39
-10.09
-13.76
-17.64
-21.87
-26.40
-30.85
-34.63
-37.10
-37.83
-36.79
-34.35
-31.17
-27.91
-25.04
-22.68
-20.78
-19.15
-17.73
-16.55
-15.69
-15.19
-14.98
-14.85
-14.60
-14.10
-13.31
-12.30
-11.20
-10.07
-9.00
-8.04
-7.34
-7.11
-7.53
-8.70
-10.50
-12.64
-14.69
-16.26
-17.16
-17.46
-17.47
-17.63
-18.27
-19.50
-21.10
-22.55
-23.23
-22.56
-20.19
-16.18
-10.89
-4.89
1.18
6.83
11.74
15.71
18.67
20.57
21.39
21.28
20.47
19.33
18.26
17.49
17.06
16.77
16.28
15.32
13.77
11.71
9.33
6.87
4.44
2.07
-0.30
-2.72
-5.19
-7.68
-10.14
-12.61
-15.11
-17.66
-20.17
-22.42
-24.00
-24.46
-23.46
-20.86
-16.83
-11.82
-6.43
-1.18
3.56
7.63
11.02
13.78
15.90
17.34
18.10
18.21
17.80
17.12
16.41
15.93
15.81
16.08
16.56
17.00
17.13
16.82
16.14
15.30
14.56
14.07
13.74
13.33
12.61
11.39
9.66
7.49
4.97
2.20
-0.67
-3.37
-5.48
-6.53
-6.16
-4.30
-1.19
2.66
6.67
10.36
13.50
16.01
17.91
19.15
19.68
19.40
18.37
16.77
14.93
13.15
11.59
10.19
8.72
6.96
4.81
2.41
0.08
-1.84
-3.14
-3.79
-3.97
-3.97
-4.02
-4.22
-4.58
-5.09
-5.69
-6.41
-7.29
-8.28
-9.25
-9.92
-9.92
-8.94
-6.84
-3.73
0.02
3.94
7.60
10.73
13.23
15.11
16.40
17.08
17.21
16.85
16.09
15.09
13.99
12.90
11.90
11.04
10.32
9.64
8.84
7.76
6.28
4.42
2.32
0.16
-1.90
-3.81
-5.62
-7.40
-9.23
-11.13
-13.10
-15.12
-17.11
-18.87
-20.13
-20.50
-19.63
-17.28
-13.45
-8.37
-2.54
3.47
9.06
13.78
17.34
19.65
20.81
21.04
20.67
20.06
19.54
19.43
19.95
21.12
22.79
24.59
26.10
26.99
27.09
26.56
25.66
24.62
23.52
22.14
20.15
17.25
13.29
8.29
2.40
-4.20
-11.32
-18.66
-25.71
-31.79
-36.17
-38.28
-37.99
-35.62
-31.91
-27.68
-23.57
-19.93
-16.75
-13.87
-11.14
-8.52
-6.10
-4.02
-2.41
-1.25
-0.44
0.18
0.77
1.43
2.15
2.83
3.32
3.47
3.22
2.50
1.35
-0.24
-2.31
-4.90
-8.00
-11.46
-15.05
-18.52
-21.74
-24.76
-27.70
-30.64
-33.39
-35.47
-36.24
-35.14
-31.88
-26.67
-20.10
-13.03
-6.28
-0.51
3.92
6.89
8.49
8.96
8.63
7.89
7.11
6.58
6.43
6.67
7.17
7.82
8.43
8.92
9.20
9.20
8.91
8.32
7.48
6.44
5.24
3.87
2.34
0.73
-0.81
-2.13
-3.18
-4.06
-4.99
-6.19
-7.74
-9.42
-10.82
-11.43
-10.86
-8.96
-5.85
-1.87
2.65
7.35
11.96
16.18
19.70
22.24
23.63
23.96
23.54
22.83
22.24
21.96
21.95
22.04
22.07
21.99
21.86
21.73
21.62
21.37
20.84
19.95
18.68
17.16
15.47
13.68
11.72
9.55
7.12
4.51
1.87
-0.72
-3.23
-5.81
-8.62
-11.73
-15.00
-18.03
-20.28
-21.24
-20.59
-18.30
-14.58
-9.87
-4.65
0.66
5.71
10.29
14.24
17.44
19.80
21.24
21.81
21.71
21.31
21.04
21.22
22.00
23.22
24.57
25.70
26.34
26.36
25.70
24.29
22.07
19.06
15.39
11.38
7.38
3.64
0.22
-2.99
-6.22
-9.57
-12.98
-16.26
-19.14
-21.40
-22.89
-23.55
-23.29
-22.04
-19.80
-16.62
-12.72
-8.42
-4.07
-0.03
3.42
6.10
8.02
9.32
10.22
10.92
11.53
12.00
12.18
11.94
11.29
10.42
9.61
9.05
8.76
8.55
8.13
7.29
5.99
4.34
2.51
0.62
-1.26
-3.18
-5.15
-7.18
-9.28
-11.49
-13.88
-16.52
-19.31
-22.02
-24.25
-25.63
-25.87
-24.85
-22.63
-19.42
-15.51
-11.24
-6.95
-2.95
0.51
3.27
5.26
6.54
7.23
7.54
7.66
7.75
7.87
7.98
7.93
7.58
6.85
5.75
4.41
2.96
1.53
0.20
-0.96
-1.96
-2.82
-3.61
-4.46
-5.52
-6.94
-8.78
-10.94
-13.19
-15.29
-17.07
-18.46
-19.45
-19.94
-19.77
-18.68
-16.52
-13.37
-9.60
-5.70
-2.14
0.82
3.25
5.35
7.33
9.22
10.90
12.18
12.93
13.12
12.87
12.31
11.54
10.63
9.60
8.45
7.21
5.95
4.71
3.52
2.37
1.19
-0.15
-1.77
-3.77
-6.13
-8.69
-11.24
-13.58
-15.61
-17.38
-18.99
-20.53
-21.91
-22.87
-23.09
-22.27
-20.32
-17.36
-13.69
-9.69
-5.70
-2.01
1.21
3.77
5.57
6.52
6.65
6.13
5.21
4.22
3.40
2.83
2.42
1.96
1.31
0.37
-0.80
-2.10
-3.44
-4.74
-5.97
-7.11
-8.12
-8.98
-9.69
-10.29
-10.88
-11.58
-12.51
-13.75
-15.30
-17.01
-18.60
-19.62
-19.63
-18.33
-15.69
-11.95
-7.56
-2.99
1.39
5.37
8.83
11.67
13.68
14.66
14.50
13.32
11.52
9.68
8.34
7.78
7.92
8.42
8.85
8.90
8.50
7.76
6.88
5.95
4.95
3.79
2.43
0.98
-0.42
-1.62
-2.64
-3.62
-4.81
-6.26
-7.81
-8.99
-9.21
-8.02
-5.19
-0.75
5.12
12.19
20.09
28.14
35.32
40.44
42.54
41.31
37.29
31.66
25.65
20.05
14.95
9.96
4.70
-0.81
-6.09
-10.46
-13.48
-15.19
-16.10
-16.91
-18.17
-20.11
-22.68
-25.66
-28.82
-32.07
-35.30
-38.35
-40.97
-42.78
-43.45
-42.80
-40.88
-37.95
-34.42
-30.63
-26.85
-23.20
-19.77
-16.61
-13.79
-11.35
-9.30
-7.61
-6.23
-5.06
-4.00
-2.92
-1.76
-0.56
0.53
1.26
1.41
0.91
-0.11
-1.37
-2.54
-3.43
-4.05
-4.59
-5.28
-6.32
-7.68
-9.17
-10.48
-11.20
-11.05
-9.93
-7.92
-5.26
-2.24
0.85
3.85
6.66
9.15
11.22
12.73
13.59
13.77
13.38
12.63
11.80
11.12
10.71
10.56
10.52
10.42
10.08
9.45
8.59
7.64
6.76
6.01
5.35
4.60
3.55
2.00
-0.14
-2.79
-5.70
-8.45
-10.55
-11.58
-11.36
-9.94
-7.60
-4.74
-1.67
1.36
4.28
7.03
9.52
11.60
13.11
13.93
14.08
13.73
13.12
12.50
11.99
11.57
11.12
10.41
9.27
7.63
5.59
3.29
0.94
-1.27
-3.25
-4.97
-6.50
-7.95
-9.40
-10.87
-12.29
-13.50
-14.28
-14.38
-13.59
-11.81
-9.11
-5.75
-2.11
1.37
4.37
6.73
8.40
9.48
10.07
10.25
10.13
9.86
9.59
9.50
9.65
9.98
10.32
10.51
10.42
10.02
9.40
8.74
8.28
8.25
8.85
10.14
11.98
14.00
15.66
16.39
15.85
13.99
11.09
7.66
4.17
0.98
-1.85
-4.34
-6.62
-8.64
-10.26
-11.26
-11.58
-11.31
-10.70
-10.06
-9.50
-8.99
-8.39
-7.64
-6.81
-6.09
-5.67
-5.59
-5.74
-5.90
-5.88
-5.75
-5.77
-6.27
-7.52
-9.52
-12.02
-14.56
-16.71
-18.12
-18.75
-18.79
-18.53
-18.24
-17.92
-17.35
-16.16
-13.99
-10.67
-6.33
-1.35
3.82
8.76
13.21
17.06
20.27
22.85
24.84
26.34
27.56
28.75
30.16
31.90
33.93
36.06
38.12
39.95
41.45
42.57
43.23
43.27
42.55
40.94
38.38
34.90
30.59
25.61
20.20
14.62
9.13
3.87
-1.13
-5.91
-10.47
-14.69
-18.25
-20.79
-22.07
-22.11
-21.18
-19.73
-18.15
-16.62
-15.06
-13.34
-11.33
-9.12
-6.98
-5.29
-4.29
-4.02
-4.21
-4.52
-4.60
-4.25
-3.47
-2.31
-0.82
1.00
3.08
5.13
6.60
6.71
4.86
0.89
-4.71
-10.96
-16.76
-21.25
-24.08
-25.41
-25.55
-24.74
-23.09
-20.71
-17.83
-14.91
-12.45
-10.82
-10.17
-10.31
-10.94
-11.88
-13.15
-14.83
-16.89
-19.06
-20.89
-22.19
-22.86
-22.99
-22.92
-23.05
-23.69
-24.93
-26.65
-28.41
-30.06
-31.26
-31.67
-31.30
-30.53
-30.01
-30.21
-31.18
-32.10
-32.11
-29.92
-24.44
-15.26
-2.99
10.92
24.50
35.47
43.33
45.97
41.95
32.30
20.57
11.15
7.24
9.87
16.18
24.26
31.76
37.07
39.65
39.81
38.25
35.57
32.70
30.18
28.37
26.73
24.58
21.33
16.45
9.59
0.54
-10.30
-22.04
-33.22
-42.65
-49.28
-52.34
-51.72
-47.95
-42.28
-35.86
-29.42
-22.99
-16.28
-8.75
0.10
10.29
22.11
33.78
42.73
47.25
47.39
44.41
39.67
34.19
28.53
22.94
17.46
12.41
8.36
5.38
4.10
5.01
8.33
14.04
21.79
30.63
39.29
46.27
50.02
49.39
43.88
33.99
21.16
8.01
-2.78
-9.32
-11.26
-9.88
-7.42
-6.15
-7.41
-11.10
-16.03
-20.67
-23.74
-24.50
-22.76
-18.70
-12.67
-5.09
3.60
12.81
21.70
29.26
34.51
36.74
35.72
31.66
25.08
16.86
7.89
-1.17
-9.82
-17.73
-24.62
-30.16
-34.33
-37.54
-40.27
-43.22
-47.02
-51.82
-57.34
-62.91
-67.73
-71.41
-74.20
-76.09
-77.16
-77.26
-75.78
-71.99
-65.01
-54.00
-38.99
-21.20
-2.33
14.79
26.70
30.14
24.40
10.70
-6.04
-18.87
-25.87
-25.65
-18.57
-6.62
9.57
27.39
44.19
58.25
68.53
74.41
76.13
73.98
68.33
59.87
49.31
37.64
26.04
15.16
4.93
-4.67
-13.69
-21.89
-28.64
-33.38
-35.58
-34.76
-31.19
-26.08
-20.95
-17.22
-15.68
-16.21
-18.15
-20.46
-21.43
-19.81
-15.29
-8.46
-0.42
7.71
15.15
21.49
26.92
32.79
40.59
51.09
63.94
78.06
92.12
104.75
114.48
115.58
104.17
81.08
52.14
24.35
2.56
-11.36
-17.83
-18.75
-16.70
-13.30
-9.42
-5.54
-2.00
1.06
3.74
6.26
8.65
10.54
11.92
12.76
12.94
12.06
9.85
6.15
1.10
-4.28
-8.75
-11.01
-10.69
-9.18
-9.22
-13.52
-23.26
-36.73
-49.90
-58.24
-58.73
-51.37
-39.17
-26.53
-16.98
-12.18
-11.31
-12.33
-13.60
-14.63
-16.05
-18.93
-24.17
-29.06
-32.20
-32.67
-30.48
-26.72
-23.10
-21.08
-21.18
-22.66
-23.80
-23.19
-19.97
-14.45
-8.17
-3.17
-1.15
-2.62
-6.82
-11.91
-16.17
-18.17
-17.35
-14.14
-9.67
-5.37
-2.43
-1.53
-2.64
-5.33
-8.72
-11.78
-13.68
-14.04
-13.13
-11.56
-10.00
-8.85
-8.31
-8.23
-8.36
-8.41
-8.22
-7.85
-7.46
-7.17
-7.03
-7.21
-8.11
-10.21
-13.74
-18.62
-24.58
-31.06
-37.24
-42.35
-45.96
-48.15
-49.49
-50.08
-50.26
-50.62
-51.53
-52.61
-52.77
-50.90
-46.55
-40.26
-31.76
-21.63
-11.34
-2.59
3.91
8.53
12.11
15.42
19.12
26.27
39.06
57.41
79.32
102.41
124.66
144.54
161.01
173.75
186.36
201.47
218.77
235.72
250.10
261.45
270.71
279.36
268.07
228.44
167.90
102.98
45.86
0.40
-33.89
-58.67
-75.64
-86.45
-89.49
-84.67
-75.15
-66.28
-63.00
-67.80
-80.46
-98.49
-118.29
-133.89
-141.68
-141.90
-137.35
-131.00
-124.41
-117.85
-111.25
-104.84
-97.59
-89.16
-80.59
-71.96
-63.04
-53.03
-41.13
-27.34
-12.63
1.92
14.36
21.61
21.76
14.47
1.47
-13.71
-26.99
-34.74
-34.53
-25.79
-9.98
10.51
32.64
53.35
70.12
81.30
86.55
86.95
85.24
82.55
79.76
76.49
71.50
63.74
53.37
42.30
33.43
29.01
28.83
30.31
29.17
21.73
7.07
-12.39
-31.87
-46.27
-52.65
-51.87
-47.15
-42.19
-39.88
-40.13
-41.83
-43.75
-45.01
-44.97
-42.61
-35.99
-22.87
-2.24
24.76
54.21
80.69
99.15
106.65
103.27
91.84
76.51
61.08
48.25
39.12
33.73
31.49
31.29
31.59
30.67
28.08
24.08
19.96
17.42
18.06
22.35
28.92
34.68
35.91
29.59
15.20
-5.04
-27.11
-45.97
-57.56
-60.20
-55.16
-46.27
-39.04
-38.53
-48.65
-71.50
-105.45
-144.97
-181.63
-206.23
-211.36
-194.17
-156.04
-102.71
-42.47
17.77
74.25
126.72
177.13
228.46
275.35
311.28
332.97
334.70
314.02
273.31
219.24
160.23
103.23
51.38
5.30
-35.90
-72.70
-102.92
-123.06
-130.67
-126.46
-114.41
-100.22
-87.97
-79.12
-73.11
-67.55
-60.27
-50.46
-38.82
-27.08
-17.39
-11.49
-11.05
-18.01
-33.58
-57.85
-89.16
-123.58
-155.09
-176.55
-181.44
-166.74
-134.95
-94.14
-56.04
-32.27
-30.45
-51.95
-91.98
-141.72
-191.14
-231.51
-256.49
-262.62
-249.36
-219.25
-177.53
-130.99
-86.07
-46.94
-14.59
12.67
37.62
62.41
87.68
112.54
135.23
154.04
167.92
176.42
179.66
178.37
173.86
167.56
160.61
153.06
144.61
135.06
124.53
113.26
101.10
87.31
70.65
50.37
26.48
1.00
-22.53
-41.23
-54.09
-62.03
-66.42
-68.45
-69.08
-70.86
-76.68
-88.56
-107.04
-129.73
-151.45
-165.28
-165.69
-150.89
-124.91
-93.92
-63.01
-35.68
-12.95
5.70
22.25
38.01
61.41
90.97
115.75
123.77
111.12
84.75
53.52
27.64
12.90
10.02
14.42
20.71
31.31
46.21
64.51
83.93
102.01
116.46
126.07
129.86
128.32
122.71
112.94
98.23
77.27
50.50
20.37
-9.30
-35.64
-56.73
-72.01
-82.06
-86.97
-87.20
-82.88
-75.31
-67.55
-63.94
-67.11
-76.87
-89.87
-100.79
-106.60
-106.51
-102.49
-97.81
-95.29
-95.03
-95.81
-95.70
-93.39
-90.85
-90.37
-93.72
-101.37
-112.58
-125.19
-138.67
-153.74
-162.05
-159.33
-144.06
-116.45
-76.21
-28.94
26.21
85.69
143.91
197.75
241.04
272.70
295.51
312.70
324.44
328.09
318.80
294.41
257.54
213.21
168.11
126.93
90.66
57.41
25.59
-5.14
-32.04
-50.55
-57.51
-51.67
-35.11
-12.82
9.14
26.69
38.54
46.67
54.42
63.14
71.37
74.87
69.17
52.65
28.42
3.27
-15.34
-22.94
-20.32
-12.60
-6.84
-8.62
-20.28
-40.67
-66.27
-92.21
-113.22
-124.52
-123.12
-109.56
-88.68
-69.21
-60.89
-70.36
-98.05
-137.83
-179.87
-214.98
-238.11
-248.96
-250.89
-248.28
-244.15
-239.26
-232.77
-223.56
-211.28
-196.35
-178.24
-156.53
-131.16
-102.30
-70.26
-35.79
-0.54
33.00
62.25
87.73
110.69
132.15
152.95
174.47
198.31
225.10
253.30
279.60
303.12
322.06
333.39
334.59
326.24
311.93
296.26
282.31
271.68
269.07
276.81
293.19
313.80
334.58
352.86
366.68
373.65
345.73
273.41
172.98
74.56
-1.48
-50.97
-79.29
-94.42
-104.61
-115.82
-126.06
-132.92
-136.62
-139.34
-142.52
-146.58
-146.62
-141.57
-133.01
-120.98
-107.30
-95.64
-89.68
-90.52
-96.35
-103.97
-111.08
-115.81
-114.86
-106.81
-93.30
-78.30
-65.79
-58.16
-55.90
-58.35
-63.72
-69.00
-72.46
-74.48
-76.89
-81.12
-87.24
-94.07
-100.64
-106.72
-112.67
-119.39
-127.32
-136.01
-144.15
-150.72
-155.73
-160.23
-164.63
-167.39
-165.21
-155.03
-136.75
-114.72
-96.67
-90.35
-99.84
-123.54
-154.97
-185.94
-209.89
-223.86
-228.30
-225.29
-216.53
-202.24
-181.66
-154.52
-122.47
-89.49
-60.82
-40.95
-31.46
-30.27
-32.33
-31.92
-25.21
-11.87
5.03
20.78
31.25
34.75
32.57
28.12
25.38
27.31
34.83
46.80
60.74
74.04
85.01
93.37
100.09
106.83
115.31
127.11
143.74
166.58
196.16
231.23
268.03
300.80
323.46
332.06
326.51
310.48
289.55
268.68
250.40
234.67
220.25
206.36
193.55
183.28
176.69
173.45
171.66
168.51
161.34
148.42
129.12
103.87
73.98
41.65
9.84
-18.36
-40.46
-55.56
-64.32
-68.39
-69.30
-67.81
-63.73
-56.19
-44.32
-27.86
-7.74
13.79
33.33
47.10
51.99
46.76
32.60
12.73
-8.83
-29.55
-49.33
-70.26
-95.29
-126.52
-164.14
-205.99
-248.15
-285.44
-313.69
-330.41
-334.48
-325.69
-304.49
-271.89
-229.44
-179.41
-123.70
-66.08
-11.01
38.64
82.81
123.38
162.24
199.69
233.62
262.56
283.98
296.71
302.75
306.20
310.58
316.33
321.13
321.49
316.94
305.66
284.61
251.22
204.73
146.74
81.51
15.54
-60.06
-136.29
-197.53
-235.20
-251.49
-252.25
-242.01
-224.13
-202.77
-182.56
-165.92
-156.56
-157.33
-167.69
-183.82
-200.97
-214.85
-222.79
-222.97
-212.15
-189.14
-154.66
-110.28
-58.44
-2.78
53.06
105.04
148.68
180.91
199.30
203.06
193.82
175.46
152.83
131.77
115.85
104.61
95.13
84.00
69.47
51.81
32.80
15.05
4.03
5.23
21.48
52.45
94.94
143.11
188.76
223.32
226.11
188.63
124.69
61.05
16.69
-4.82
-10.08
-8.25
-6.13
-6.13
-5.97
-3.71
-1.13
-3.29
-13.94
-33.42
-58.89
-85.80
-109.58
-125.39
-130.83
-127.37
-119.16
-109.89
-101.54
-94.90
-90.66
-89.98
-93.34
-100.92
-112.39
-126.01
-137.74
-142.51
-136.62
-119.73
-95.27
-68.77
-46.29
-32.79
-30.75
-39.50
-55.95
-75.99
-95.97
-113.52
-127.49
-137.74
-144.58
-148.13
-147.72
-142.11
-130.15
-111.61
-87.52
-59.85
-30.86
-2.81
22.21
42.11
54.62
57.48
49.05
29.08
-0.79
-36.93
-74.24
-107.19
-130.87
-142.15
-140.30
-126.85
-105.05
-78.75
-51.32
-24.91
-0.29
22.77
44.75
65.81
85.53
103.04
117.38
128.06
135.47
141.16
147.66
157.67
172.75
192.01
211.84
226.98
232.81
227.45
212.64
192.80
172.64
154.90
139.36
123.64
105.26
83.30
59.06
35.13
13.85
-3.94
-19.03
-33.05
-47.21
-61.41
-74.28
-83.85
-88.75
-89.12
-86.82
-84.89
-86.26
-92.59
-103.50
-116.75
-129.13
-137.80
-141.23
-139.64
-134.66
-128.56
-123.32
-120.11
-119.11
-119.74
-121.15
-122.67
-123.95
-124.99
-125.84
-126.25
-125.60
-123.01
-117.80
-109.70
-99.04
-86.58
-73.10
-59.17
-45.06
-30.91
-17.04
-4.06
7.22
16.11
22.41
26.41
28.93
30.86
33.09
36.37
41.28
48.17
57.01
67.19
77.68
87.30
95.24
101.42
106.48
111.40
116.95
123.10
129.05
133.57
135.51
134.22
129.65
122.26
112.76
101.99
90.83
80.09
70.43
62.14
55.14
48.98
43.00
36.56
29.29
21.25
13.04
5.68
0.30
-2.33
-2.17
0.05
3.05
5.66
7.33
8.31
9.27
10.54
11.75
11.79
9.35
3.79
-4.43
-13.83
-22.59
-29.36
-33.94
-37.32
-41.11
-47.00
-56.13
-69.00
-85.42
-104.22
-122.88
-137.47
-143.34
-136.65
-116.33
-84.79
-47.26
-9.48
24.53
53.84
79.96
105.01
129.92
153.86
174.92
191.58
203.69
212.41
219.16
224.55
227.91
227.75
222.70
212.46
198.11
181.86
166.26
153.25
143.59
136.72
131.14
125.29
118.21
109.83
100.68
91.41
82.33
73.26
63.72
53.33
42.03
30.11
18.15
6.76
-3.74
-13.36
-22.44
-31.42
-40.61
-49.94
-59.10
-67.62
-75.20
-81.83
-87.84
-93.67
-99.57
-105.38
-110.49
-114.08
-115.54
-114.68
-111.87
-107.80
-103.14
-98.22
-93.00
-87.17
-80.40
-72.61
-64.02
-55.11
-46.44
-38.47
-31.48
-25.53
-20.53
-16.28
-12.63
-9.56
-7.09
-5.30
-4.22
-3.81
-3.96
-4.57
-5.52
-6.67
-7.77
-8.51
-8.64
-8.09
-7.05
-5.87
-4.91
-4.29
-3.92
-3.52
-2.91
-2.07
-1.09
-0.06
1.10
2.52
4.28
6.28
8.24
9.88
11.02
11.79
12.43
13.10
13.74
13.99
13.53
12.19
10.30
8.61
8.09
9.55
13.24
18.62
24.44
29.00
30.56
27.83
20.22
8.08
-7.17
-23.14
-36.77
-44.94
-45.36
-37.21
-21.26
0.37
24.94
49.50
71.32
87.86
96.83
97.06
89.17
75.80
60.79
47.85
39.36
35.60
34.94
34.57
31.95
25.86
16.65
5.78
-5.03
-14.43
-21.89
-27.81
-33.54
-40.06
-46.94
-52.34
-54.23
-51.69
-45.62
-38.93
-35.60
-40.88
-58.06
-86.74
-123.17
-162.47
-200.38
-233.63
-259.76
-276.78
-285.59
-286.30
-276.14
-250.66
-207.04
-145.94
-71.05
11.54
93.93
162.97
207.79
225.69
222.13
205.97
184.74
163.03
141.58
117.76
81.07
23.05
-56.15
-148.56
-244.20
-335.36
-415.69
-479.93
-487.45
-418.58
-296.86
-172.22
-80.64
-30.27
-12.12
-11.27
-14.60
-14.05
-12.92
-16.40
-24.05
-32.68
-35.50
-31.44
-23.37
-15.27
-9.54
-10.63
-19.23
-29.82
-34.13
-27.09
-10.40
10.56
27.20
32.61
20.91
-8.11
-46.62
-82.27
-104.07
-107.32
-93.61
-69.12
-41.32
-17.39
-0.08
14.82
34.20
62.70
99.58
140.17
178.69
210.82
234.21
249.32
260.99
272.86
284.61
292.01
290.56
278.17
255.40
224.38
188.52
155.72
131.98
118.67
112.77
110.81
111.85
117.05
127.63
144.77
173.53
215.21
265.23
315.54
360.35
399.05
433.41
463.42
449.55
369.95
237.22
92.51
-26.37
-103.94
-144.32
-157.70
-163.44
-172.44
-181.59
-184.02
-176.10
-160.34
-145.21
-136.56
-137.72
-149.72
-169.65
-188.26
-197.61
-194.79
-182.70
-166.54
-150.22
-136.18
-126.37
-121.75
-119.59
-119.46
-121.85
-126.14
-129.62
-128.44
-120.21
-105.50
-86.76
-66.51
-47.88
-33.88
-27.04
-27.98
-35.37
-46.15
-56.33
-62.20
-61.70
-55.77
-47.53
-40.73
-37.97
-39.74
-44.84
-51.61
-58.27
-63.98
-68.78
-72.67
-75.30
-76.10
-74.80
-71.92
-68.81
-67.11
-67.93
-71.00
-74.37
-75.10
-70.64
-60.02
-44.36
-26.38
-9.20
4.91
15.51
23.99
32.44
42.18
52.62
61.32
65.03
61.40
50.36
34.53
18.39
6.57
2.10
5.38
14.45
26.20
37.69
46.95
52.99
55.17
52.66
44.53
30.25
10.39
-13.20
-37.80
-60.67
-79.75
-94.01
-103.24
-107.72
-108.04
-105.15
-100.54
-96.07
-93.46
-93.59
-95.89
-98.33
-98.01
-92.05
-78.41
-56.37
-26.71
8.27
44.91
78.63
104.74
119.52
121.30
111.23
93.23
72.98
56.33
47.67
48.71
58.10
72.00
85.29
93.06
91.98
81.11
62.11
38.72
15.39
-3.98
-16.95
-22.82
-22.40
-17.47
-9.90
-1.09
8.72
20.25
34.74
53.23
75.48
99.37
120.98
135.73
139.93
132.51
115.02
90.95
64.71
40.75
22.97
14.27
16.49
29.79
53.23
83.44
115.23
143.33
164.19
176.72
181.47
180.18
174.79
168.98
165.30
164.60
166.63
170.68
175.82
180.39
183.34
184.11
185.81
190.23
196.56
202.42
205.39
204.01
197.07
185.14
169.26
154.49
143.17
133.55
122.01
105.83
85.25
62.31
42.11
4.10
-55.50
-125.04
-187.33
-232.57
-260.80
-270.54
-269.99
-264.34
-256.59
-244.77
-228.12
-211.83
-199.18
-190.99
-185.84
-182.83
-180.45
-177.05
-168.48
-153.21
-133.54
-113.40
-96.62
-85.35
-80.64
-80.79
-81.21
-75.14
-58.35
-31.41
2.05
37.34
70.49
98.14
110.00
99.12
67.02
23.46
-20.75
-58.34
-85.96
-102.57
-108.84
-107.33
-98.79
-83.87
-63.84
-42.25
-23.47
-10.80
-4.97
-3.83
-5.05
-3.91
3.48
19.72
43.43
70.35
95.16
113.46
122.72
121.72
111.41
87.12
50.84
10.21
-25.85
-52.75
-71.28
-83.99
-92.10
-95.65
-95.44
-90.40
-82.24
-73.81
-68.01
-66.19
-65.75
-64.78
-61.61
-55.17
-44.18
-28.73
-9.72
10.48
29.26
45.84
59.42
68.70
71.79
67.16
53.42
30.83
0.38
-35.31
-70.87
-96.68
-102.50
-83.55
-44.19
1.15
42.41
72.42
88.22
91.44
83.24
67.79
50.00
32.84
16.37
-0.72
-20.79
-44.46
-69.11
-89.32
-98.79
-90.04
-62.07
-23.39
12.69
35.88
43.92
40.54
31.01
19.60
8.41
-2.13
-11.24
-16.94
-18.39
-15.29
-8.88
-1.32
5.81
12.07
17.37
21.78
25.83
29.26
31.39
31.55
29.70
26.51
22.53
17.29
9.95
0.25
-10.95
-21.53
-28.89
-30.72
-25.71
-14.16
1.66
18.17
31.70
39.73
41.79
39.55
35.40
31.43
29.02
28.18
28.10
27.81
26.79
25.18
23.51
22.32
21.77
21.84
22.20
22.52
22.49
21.99
21.22
20.53
20.27
20.38
20.63
20.73
20.49
19.89
19.15
18.35
17.11
16.80
17.09
17.15
16.11
13.45
9.19
3.83
-1.85
-7.11
-11.35
-14.67
-17.29
-19.59
-21.98
-24.83
-28.31
-32.25
-36.21
-39.47
-41.57
-42.12
-41.00
-38.40
-34.78
-30.60
-26.26
-22.01
-17.95
-14.26
-10.96
-7.95
-4.96
-1.68
2.21
6.86
12.18
17.82
23.22
27.88
31.50
33.90
35.07
34.95
33.44
30.39
25.76
19.67
12.63
5.38
-1.25
-6.58
-10.35
-12.82
-14.59
-16.51
-19.39
-23.76
-29.70
-36.71
-43.76
-49.52
-52.71
-52.58
-49.10
-43.08
-35.69
-28.12
-21.15
-15.10
-9.92
-5.47
-1.69
1.42
3.92
6.08
8.32
11.02
14.36
18.17
22.07
25.56
28.18
29.68
29.97
29.09
27.26
24.78
21.98
19.15
16.44
13.84
11.18
8.16
4.42
-0.36
-6.46
-14.01
-22.83
-32.51
-42.35
-51.50
-59.19
-64.81
-68.03
-68.92
-67.85
-65.31
-61.85
-57.87
-53.67
-49.57
-45.90
-43.01
-41.12
-40.14
-39.56
-38.61
-36.53
-32.78
-27.31
-20.33
-12.12
-2.86
7.33
18.15
28.89
38.45
45.67
49.76
50.70
49.20
46.48
43.76
41.96
41.64
43.20
47.04
53.46
62.28
72.20
80.73
84.61
80.94
68.47
48.45
24.37
0.91
-17.60
-28.47
-31.08
-26.62
-17.26
-5.43
6.52
16.43
22.38
22.95
17.60
6.97
-7.08
-21.93
-34.79
-43.43
-46.68
-44.53
-37.96
-28.53
-17.99
-7.95
0.33
5.97
8.56
8.18
5.30
0.80
-4.22
-8.67
-11.82
-13.51
-14.13
-14.37
-14.81
-15.65
-16.61
-17.16
-16.77
-15.22
-12.65
-9.36
-5.62
-1.58
2.67
6.96
10.89
13.96
15.78
16.31
15.90
15.12
14.52
14.42
14.76
15.26
15.57
15.39
14.63
13.36
11.75
9.96
8.09
6.11
3.91
1.39
-1.46
-4.51
-7.49
-10.12
-12.23
-13.78
-14.86
-15.56
-15.97
-16.11
-16.08
-16.05
-16.23
-16.65
-17.13
-17.30
-16.82
-15.54
-13.64
-11.57
-9.88
-8.88
-8.67
-9.06
-9.77
-10.59
-11.40
-12.28
-13.42
-15.05
-17.36
-20.41
-24.04
-27.85
-31.29
-33.90
-35.48
-36.20
-36.44
-36.65
-37.11
-37.85
-38.61
-38.90
-37.93
-34.63
-27.73
-16.13
0.61
21.84
45.67
69.45
90.43
106.66
117.44
123.22
125.14
124.36
121.92
118.65
115.47
113.39
113.18
114.80
117.07
117.90
115.10
107.43
94.90
78.38
58.55
34.80
5.22
-32.62
-80.14
-136.52
-198.32
-260.12
-315.80
-359.87
-388.68
-400.89
-397.64
-381.93
-357.49
-327.67
-294.39
-257.56
-215.29
-165.21
-106.30
-40.74
25.83
85.43
130.25
155.31
160.19
148.95
128.29
104.79
82.43
62.63
45.36
30.56
18.86
11.58
9.80
13.44
20.90
28.64
33.35
33.23
27.99
18.47
6.03
-7.52
-19.93
-28.78
-33.23
-32.59
-26.38
-15.02
-0.37
14.59
26.89
34.47
36.19
30.17
16.07
-4.13
-26.67
-47.39
-62.67
-70.01
-68.40
-48.47
-10.08
37.23
80.22
110.65
127.17
132.15
128.58
119.09
105.61
88.31
68.37
48.37
31.22
18.49
10.08
4.09
-0.01
-2.23
-3.25
-2.89
-0.21
5.60
14.08
23.69
32.32
38.48
41.45
40.72
37.04
32.28
28.82
27.52
29.21
33.94
40.93
48.33
53.27
53.30
47.59
37.32
25.17
14.34
7.11
4.11
4.28
5.59
6.42
6.06
4.65
2.31
-1.17
-6.59
-14.52
-24.62
-35.40
-44.62
-50.28
-51.39
-48.40
-42.75
-36.20
-30.20
-25.55
-22.54
-21.25
-21.69
-23.83
-27.22
-30.90
-33.58
-33.96
-31.15
-24.88
-15.39
-3.25
10.84
26.04
41.21
54.84
65.30
71.33
72.68
70.46
66.86
64.37
64.64
67.73
72.11
75.37
75.36
71.13
63.10
52.67
41.40
30.35
19.99
10.40
1.72
-5.72
-11.48
-15.33
-17.56
-18.88
-20.21
-22.27
-25.39
-29.42
-33.96
-38.63
-43.22
-47.89
-52.86
-58.18
-63.59
-68.68
-73.03
-76.37
-78.77
-80.65
-82.50
-84.58
-86.47
-87.15
-85.40
-80.21
-71.23
-58.89
-44.19
-28.41
-12.63
2.69
17.31
30.80
42.36
51.04
56.09
57.20
54.66
49.27
43.02
37.67
34.08
32.11
31.23
31.15
31.84
33.15
34.53
36.63
39.35
41.50
41.55
39.11
35.56
33.32
34.27
39.06
49.89
67.36
89.82
113.83
136.18
155.38
171.48
185.21
197.46
212.91
234.98
263.83
296.15
327.46
354.20
374.15
386.17
365.82
301.33
200.15
86.16
-17.13
-98.19
-156.48
-196.39
-222.97
-240.16
-247.01
-243.32
-231.73
-217.32
-204.45
-194.31
-185.38
-175.39
-163.41
-147.55
-128.41
-109.16
-93.84
-84.67
-80.65
-78.54
-75.02
-68.01
-55.25
-36.32
-13.01
10.96
31.22
43.72
45.45
35.06
13.59
-14.11
-41.69
-63.90
-78.70
-87.59
-94.21
-101.81
-110.99
-119.00
-120.38
-110.44
-87.97
-56.36
-22.40
6.42
24.42
29.35
20.25
-0.55
-28.29
-56.51
-78.68
-89.44
-85.58
-66.36
-33.56
8.68
54.69
97.40
130.37
148.56
149.87
135.48
109.66
78.50
47.93
22.49
3.90
-7.56
-12.95
-13.65
-11.09
-7.20
-3.50
-1.00
2.54
8.70
19.72
35.25
53.94
72.85
88.37
97.24
97.82
90.63
72.49
45.38
15.16
-11.75
-32.40
-47.05
-57.96
-66.41
-71.83
-73.54
-70.40
-62.29
-48.71
-30.64
-8.96
12.80
29.78
38.14
36.64
27.54
14.37
0.23
-13.26
-25.39
-36.02
-44.66
-50.37
-52.63
-51.19
-46.84
-41.06
-35.64
-31.68
-29.45
-28.69
-27.92
-26.20
-23.18
-19.32
-15.47
-12.55
-11.04
-10.99
-11.94
-12.98
-13.47
-13.22
-12.56
-12.15
-12.75
-14.90
-18.78
-24.04
-29.40
-33.25
-34.18
-31.46
-25.16
-16.12
-5.66
4.69
13.52
20.48
25.56
28.81
30.30
30.40
29.89
29.81
31.10
34.24
40.01
48.67
59.85
72.59
85.76
98.53
110.65
122.22
128.15
124.67
110.43
87.02
57.56
25.46
-5.79
-32.67
-52.56
-64.65
-69.48
-69.06
-65.92
-62.15
-58.89
-56.50
-55.08
-54.55
-54.46
-53.13
-48.70
-40.11
-27.82
-13.68
0.01
11.48
20.09
26.13
30.61
34.20
36.90
38.29
38.05
36.32
33.51
29.92
25.46
20.29
14.25
7.67
1.05
-5.14
-10.57
-15.01
-18.17
-19.66
-18.97
-15.78
-10.31
-3.17
4.78
12.70
19.79
25.31
28.50
28.73
25.88
20.31
13.11
5.76
-0.30
-4.06
-5.04
-3.19
1.21
7.61
14.91
21.71
26.58
28.40
26.78
22.12
15.26
6.87
-1.29
-8.47
-14.50
-19.69
-24.51
-29.37
-34.49
-39.83
-45.09
-49.63
-52.83
-53.98
-52.58
-48.64
-42.80
-36.29
-30.51
-26.55
-24.77
-24.87
-25.93
-26.95
-27.21
-26.57
-25.27
-23.73
-22.17
-20.60
-19.00
-17.34
-15.55
-13.35
-10.22
-5.48
1.29
9.83
19.16
27.75
34.14
37.83
39.52
40.71
42.92
46.73
51.53
55.84
58.00
56.96
52.98
47.65
43.21
41.60
43.59
48.47
54.33
58.79
59.78
56.87
51.62
46.90
45.59
49.30
57.61
68.27
78.04
83.26
82.50
77.23
71.01
67.84
70.81
81.21
98.17
118.47
135.30
141.95
133.44
107.15
63.05
4.52
-61.35
-125.02
-177.30
-215.20
-239.17
-252.38
-259.92
-267.60
-279.69
-297.16
-317.94
-338.56
-359.27
-378.60
-392.48
-395.93
-385.76
-361.82
-326.67
-284.66
-218.01
-127.62
-30.30
54.19
117.42
161.71
192.34
212.64
224.53
228.14
219.82
199.95
173.83
148.60
129.26
117.04
110.23
106.04
101.29
90.97
73.75
52.52
32.41
17.83
11.21
13.10
22.61
37.70
54.22
69.17
81.34
90.48
96.06
97.30
93.81
86.08
75.45
62.94
50.24
39.29
31.50
27.12
25.36
24.98
24.91
24.53
23.56
22.38
21.65
21.76
22.40
22.59
21.16
17.24
10.55
1.46
-9.20
-20.53
-31.79
-42.29
-51.27
-57.79
-60.89
-59.81
-54.20
-44.15
-30.32
-13.70
4.47
22.75
39.39
52.12
58.69
57.55
48.76
34.01
16.32
-0.74
-14.14
-22.15
-25.02
-24.36
-22.24
-20.13
-18.92
-19.07
-20.62
-23.64
-26.61
-28.39
-28.59
-27.83
-26.79
-26.06
-25.90
-26.15
-26.58
-26.74
-26.69
-26.67
-27.59
-28.38
-27.67
-24.36
-17.45
-6.41
8.87
27.15
46.01
62.50
74.31
79.74
76.57
64.89
45.63
23.89
6.56
-1.79
-2.20
2.35
9.19
15.98
21.81
27.14
33.41
41.54
51.44
62.05
72.07
79.45
81.71
76.97
64.49
45.36
21.85
-3.14
-26.72
-46.15
-59.63
-66.32
-65.84
-58.52
-45.51
-29.23
-13.09
-0.39
6.87
8.35
5.19
-0.55
-6.86
-12.30
-16.37
-19.30
-21.61
-23.70
-25.75
-27.83
-29.83
-31.57
-32.87
-33.68
-34.06
-34.20
-34.24
-34.28
-34.39
-34.53
-34.69
-34.82
-34.96
-35.21
-35.74
-36.71
-38.24
-40.29
-42.58
-44.57
-45.59
-44.95
-42.25
-37.51
-31.05
-23.47
-15.40
-7.31
0.43
7.57
13.76
18.67
21.96
23.49
23.38
22.09
20.25
18.44
17.07
16.27
15.95
15.81
15.45
14.51
12.71
10.06
6.90
3.77
1.18
-0.68
-2.12
-3.85
-6.70
-11.13
-16.97
-23.39
-29.17
-33.17
-34.76
-33.92
-31.17
-27.18
-22.49
-17.29
-11.35
-4.22
4.58
15.44
28.43
43.08
58.24
72.03
82.14
86.48
84.00
75.16
61.90
46.91
32.64
20.57
11.03
3.74
-1.62
-5.11
-6.72
-6.84
-6.57
-7.51
-11.16
-18.21
-28.09
-39.27
-49.73
-57.63
-61.81
-61.84
-57.96
-50.87
-41.59
-31.30
-21.10
-11.85
-4.07
2.09
6.68
9.73
11.26
11.32
10.07
7.88
5.19
2.26
-0.98
-4.99
-10.36
-17.42
-26.01
-35.33
-44.27
-51.57
-56.26
-57.86
-56.37
-52.28
-46.41
-39.83
-33.70
-28.98
-26.19
-25.21
-25.35
-25.65
-25.20
-23.49
-20.47
-16.40
-11.61
-6.29
-0.54
5.54
11.74
17.67
22.92
27.22
30.55
33.14
35.40
37.72
40.38
43.44
46.65
49.59
51.63
52.23
51.15
48.58
45.19
42.00
40.07
40.27
43.07
48.54
56.29
65.42
74.51
81.69
85.09
83.40
76.53
65.80
53.59
42.48
34.39
30.00
28.93
30.12
32.53
35.38
38.08
39.95
40.15
37.87
32.66
24.88
15.61
6.29
-1.81
-8.03
-12.48
-15.74
-18.54
-21.37
-24.31
-27.16
-29.61
-31.52
-33.01
-34.38
-35.97
-37.89
-39.94
-41.61
-42.26
-41.31
-38.47
-33.79
-27.67
-20.72
-13.53
-6.59
-0.16
5.59
10.51
14.41
17.05
18.34
18.39
17.62
16.60
15.77
15.28
14.96
14.43
13.39
11.81
9.90
7.95
6.15
4.52
2.85
0.95
-1.28
-3.89
-6.87
-10.23
-14.00
-18.03
-21.94
-25.07
-26.67
-26.18
-23.45
-18.77
-12.84
-6.43
-0.18
5.48
10.33
14.29
17.22
19.04
19.74
19.41
18.37
17.02
15.78
14.89
14.35
13.93
13.32
12.27
10.72
8.76
6.59
4.37
2.21
0.11
-2.02
-4.38
-7.22
-10.76
-15.14
-20.17
-25.31
-29.76
-32.61
-33.21
-31.33
-27.22
-21.49
-14.82
-7.80
-0.88
5.60
11.33
16.02
19.41
21.38
21.96
21.31
19.73
17.55
15.14
12.83
10.84
9.26
7.95
6.66
5.08
2.97
0.20
-3.20
-7.11
-11.29
-15.51
-19.62
-23.63
-27.67
-31.93
-36.62
-41.86
-47.57
-53.27
-58.26
-61.82
-63.46
-63.05
-60.79
-57.13
-52.59
-47.55
-41.92
-35.45
-28.05
-19.95
-11.69
-3.82
3.16
9.07
14.04
19.03
24.91
31.83
39.08
45.67
50.82
54.11
55.36
54.46
52.58
50.68
48.83
46.22
42.25
37.20
32.14
28.29
26.49
28.93
36.51
47.85
59.68
68.78
73.71
74.92
74.02
73.02
76.55
88.36
109.35
137.15
167.94
198.16
224.90
245.85
242.50
204.23
135.58
54.95
-18.93
-76.55
-117.07
-144.01
-161.78
-173.90
-179.27
-175.48
-161.62
-139.88
-114.50
-90.14
-70.70
-58.16
-52.75
-51.22
-49.84
-46.71
-42.74
-40.30
-41.23
-45.90
-53.01
-60.68
-65.58
-64.95
-58.00
-46.43
-33.12
-20.81
-11.54
-6.98
-8.72
-16.51
-27.61
-37.14
-39.73
-31.10
-9.72
22.28
59.32
93.20
116.35
124.30
116.30
94.30
62.20
24.96
-12.89
-42.46
-57.04
-56.90
-47.79
-36.04
-26.19
-19.93
-16.85
-14.82
-12.06
-7.88
-1.85
6.70
18.24
30.81
42.59
51.96
59.49
65.02
68.16
68.69
67.26
64.93
60.72
53.98
45.16
37.72
32.40
28.13
24.02
19.18
12.65
0.66
-19.96
-50.46
-86.81
-126.39
-166.00
-201.65
-228.25
-226.00
-186.37
-118.74
-57.32
-9.42
23.55
43.77
49.43
39.70
16.31
-18.72
-60.39
-102.30
-134.53
-152.57
-155.90
-147.05
-128.75
-103.11
-73.61
-35.35
8.35
50.57
82.12
99.22
103.31
99.43
93.77
90.52
91.84
96.29
101.73
102.27
91.50
64.92
23.35
-26.91
-76.80
-117.07
-143.71
-151.52
-137.90
-103.51
-53.81
1.67
50.94
82.45
89.24
71.41
37.69
0.53
-25.45
-33.36
-25.05
-7.65
11.95
30.36
47.34
63.95
79.78
91.97
96.09
89.73
74.53
55.54
38.67
28.31
23.82
22.30
19.90
13.34
1.52
-14.39
-31.79
-48.17
-62.14
-73.65
-83.39
-92.47
-102.05
-112.29
-121.97
-128.55
-129.07
-121.24
-104.33
-78.95
-46.87
-10.52
28.01
64.67
95.09
115.40
123.44
119.89
109.02
97.56
92.72
99.86
120.66
152.49
188.54
219.25
235.11
230.32
204.49
163.02
114.98
69.63
33.07
6.35
-13.81
-33.22
-53.31
-70.82
-80.38
-79.24
-69.71
-57.38
-47.47
-42.49
-41.73
-42.33
-41.70
-38.83
-34.32
-29.30
-25.31
-22.19
-19.35
-16.03
-11.30
-4.63
3.86
13.37
22.69
30.69
36.53
39.56
39.20
35.34
27.68
16.40
1.53
-16.49
-36.36
-55.57
-70.87
-79.19
-78.42
-68.65
-52.84
-36.19
-24.03
-19.59
-22.85
-31.17
-41.33
-50.19
-55.84
-58.26
-59.53
-62.46
-69.31
-80.64
-94.75
-108.95
-118.58
-118.14
-103.61
-74.64
-34.47
10.98
54.19
87.11
101.59
93.63
65.60
25.84
-14.36
-43.70
-54.31
-44.27
-10.95
36.87
82.62
113.55
128.27
132.38
132.66
133.88
138.56
147.72
159.82
173.48
185.84
192.82
189.33
172.53
143.81
108.63
73.98
44.38
21.41
3.48
-9.24
-19.51
-30.21
-43.35
-59.57
-78.56
-100.08
-123.14
-146.18
-168.00
-189.96
-214.71
-245.06
-281.58
-320.50
-354.32
-373.59
-370.31
-340.56
-286.48
-214.45
-133.39
-52.58
19.65
76.16
111.74
124.16
117.12
98.17
79.46
70.78
74.36
86.03
99.58
110.43
116.70
119.27
119.48
118.35
115.69
111.01
104.46
96.87
89.26
81.69
74.43
67.24
60.08
53.12
47.10
43.40
43.29
47.27
54.36
62.94
71.07
77.20
80.22
79.65
75.52
67.89
58.65
48.86
39.28
30.33
22.29
15.48
10.36
7.43
6.79
7.88
9.18
9.16
6.94
2.73
-2.39
-7.03
-10.32
-12.41
-14.32
-17.65
-23.70
-33.00
-45.27
-59.45
-74.12
-87.80
-99.27
-107.70
-112.95
-115.23
-114.85
-112.00
-106.66
-98.68
-88.07
-75.16
-60.78
-46.15
-32.57
-21.12
-12.48
-6.74
-3.46
-1.79
-0.61
1.28
4.86
10.74
18.97
28.88
39.35
49.14
57.35
63.66
68.33
71.88
74.71
76.92
78.22
78.36
77.30
75.44
73.44
71.98
71.38
71.43
71.42
70.33
67.09
60.85
51.14
37.93
21.64
3.20
-16.03
-34.20
-49.41
-60.16
-65.90
-67.29
-66.05
-64.26
-63.62
-64.84
-67.64
-71.15
-74.44
-76.91
-78.25
-78.30
-76.99
-74.41
-71.08
-68.02
-66.44
-67.20
-70.23
-74.42
-77.96
-78.99
-76.34
-69.76
-59.80
-47.45
-33.73
-19.48
-5.36
8.06
20.28
30.86
39.46
45.98
50.56
53.49
55.19
56.05
56.37
56.24
55.57
54.21
52.10
49.37
46.37
43.51
41.11
39.20
37.55
35.81
33.66
31.04
28.07
25.06
22.18
19.43
16.62
13.58
10.46
7.83
6.63
7.76
11.76
18.49
27.20
36.72
45.87
53.70
59.56
63.02
63.82
61.95
57.69
51.67
44.73
37.63
30.86
24.52
18.45
12.42
6.28
0.04
-6.20
-12.33
-18.31
-24.09
-29.70
-35.11
-40.40
-45.74
-51.38
-57.53
-64.23
-71.22
-78.03
-84.04
-88.62
-91.32
-91.84
-90.11
-86.18
-80.17
-72.26
-62.71
-51.89
-40.26
-28.30
-16.39
-4.67
6.91
18.44
29.83
40.69
50.35
58.10
63.55
66.95
69.16
71.43
74.84
79.94
86.48
93.46
99.62
103.72
104.83
102.38
96.06
85.72
71.41
53.59
33.32
12.15
-8.11
-25.81
-39.83
-49.65
-55.28
-56.95
-54.85
-49.08
-39.76
-27.36
-12.82
2.44
16.83
29.09
38.60
45.45
50.20
53.43
55.28
55.21
52.15
45.10
33.73
18.79
1.94
-14.84
-30.05
-43.20
-54.64
-65.14
-75.15
-84.42
-92.17
-97.65
-100.65
-101.68
-101.59
-101.04
-100.03
-97.87
-93.54
-86.27
-75.81
-62.67
-47.94
-33.10
-19.49
-8.11
0.63
6.61
10.09
11.51
11.25
9.59
6.78
3.28
-0.35
-3.60
-6.54
-9.74
-14.09
-20.52
-29.63
-41.25
-54.16
-66.25
-75.19
-79.73
-79.53
-75.09
-67.28
-57.09
-45.39
-32.94
-20.93
-11.18
-7.05
-10.92
-22.50
-38.94
-56.42
-71.59
-82.31
-88.24
-90.00
-91.04
-93.34
-95.90
-96.06
-92.09
-84.05
-72.81
-60.06
-47.10
-38.87
-38.27
-43.91
-51.58
-57.32
-58.73
-54.19
-44.38
-31.41
-24.34
-30.69
-51.74
-83.44
-119.97
-156.09
-186.98
-210.43
-192.85
-122.67
-20.16
79.92
155.93
204.24
226.54
233.73
231.57
223.58
207.26
181.82
154.00
131.83
120.15
118.94
125.65
135.54
144.78
146.90
138.77
122.61
103.53
86.04
72.35
63.43
58.54
56.75
54.49
49.27
41.48
33.25
26.67
22.87
22.65
26.04
33.23
43.21
55.33
69.64
85.95
103.07
118.95
131.55
139.24
141.25
137.03
126.71
111.37
93.03
74.27
57.63
44.80
35.77
28.97
21.93
12.41
-0.53
-16.02
-31.32
-42.67
-46.53
-41.03
-27.03
-8.49
8.34
16.93
12.79
-4.63
-31.79
-62.56
-90.84
-112.69
-127.27
-135.99
-140.84
-143.02
-142.56
-139.02
-132.64
-124.80
-117.75
-113.81
-114.26
-118.83
-125.99
-133.67
-140.38
-145.70
-149.87
-153.08
-154.96
-154.81
-151.98
-146.31
-138.00
-127.16
-113.94
-98.13
-79.27
-57.33
-33.36
-9.19
13.47
34.10
53.55
72.55
91.40
110.16
128.81
147.19
165.13
182.39
198.33
211.67
219.44
218.37
206.71
184.73
154.23
118.09
79.90
42.79
14.81
2.14
3.80
13.64
25.24
34.30
38.91
38.59
34.29
27.17
16.10
-0.18
-20.37
-40.66
-56.70
-65.67
-67.48
-63.29
-56.66
-52.60
-58.02
-77.33
-110.61
-153.69
-199.11
-237.66
-258.11
-253.01
-223.01
-176.30
-123.54
-73.78
-32.12
0.54
26.74
54.18
89.73
135.50
188.65
244.50
297.99
344.15
378.48
378.01
332.85
256.36
176.02
111.77
68.01
39.21
18.34
1.05
-13.64
-22.03
-22.04
-16.34
-10.84
-9.06
-12.38
-18.87
-25.90
-31.78
-33.98
-31.99
-28.27
-26.86
-30.45
-39.25
-51.22
-63.62
-73.97
-78.70
-75.93
-67.00
-55.69
-45.85
-39.75
-37.40
-37.35
-37.73
-36.31
-32.06
-25.48
-17.93
-10.39
-3.02
4.71
13.22
22.35
31.69
40.31
47.15
51.35
52.71
51.59
48.72
44.73
40.06
34.99
29.91
25.43
22.28
21.01
21.52
22.96
23.91
23.05
19.72
14.35
8.24
3.04
0.05
-0.33
1.43
4.17
6.66
7.93
7.53
5.55
2.42
-1.19
-4.58
-7.15
-8.47
-8.40
-6.92
-4.27
-0.77
2.99
6.31
8.37
8.53
6.55
2.69
-2.30
-7.56
-12.38
-16.48
-20.12
-23.86
-28.34
-33.95
-40.65
-47.86
-54.67
-60.01
-63.09
-63.59
-61.84
-58.68
-55.10
-51.94
-49.68
-48.45
-48.14
-48.49
-49.27
-50.15
-50.65
-50.11
-47.73
-42.76
-34.73
-23.75
-10.71
2.83
14.95
23.99
29.13
30.65
29.76
28.10
26.92
26.76
27.47
28.56
29.66
30.66
31.55
32.16
31.98
30.34
26.77
21.53
15.65
10.66
7.86
7.84
10.20
13.86
17.58
20.58
22.78
24.59
26.38
28.11
29.17
28.73
26.30
22.06
16.94
12.14
8.64
6.92
6.81
7.73
9.01
10.07
10.53
10.28
9.44
8.45
7.87
8.28
9.96
12.79
16.19
19.36
21.46
21.89
20.37
17.19
13.17
9.63
7.96
9.02
12.69
17.75
22.33
24.76
24.33
21.50
17.56
13.79
10.67
7.82
4.17
-1.38
-9.43
-19.96
-32.46
-46.07
-59.79
-72.40
-82.48
-88.51
-89.30
-84.35
-74.21
-60.61
-45.96
-32.74
-22.72
-16.52
-13.55
-12.43
-11.70
-10.43
-8.49
-6.27
-4.21
-2.32
-0.06
3.42
8.66
15.61
23.53
31.30
38.07
43.42
47.46
50.48
52.56
53.45
52.75
50.26
46.33
41.82
37.74
34.84
33.25
32.47
31.69
30.19
27.68
24.38
20.82
17.51
14.61
11.94
9.04
5.47
0.96
-4.48
-10.60
-17.10
-23.58
-29.56
-34.47
-37.70
-38.73
-37.40
-33.96
-29.06
-23.46
-17.88
-12.77
-8.43
-5.12
-3.09
-2.58
-3.61
-5.81
-8.54
-10.98
-12.51
-12.95
-12.56
-11.93
-11.59
-11.83
-12.65
-13.92
-15.53
-17.53
-19.96
-22.73
-25.60
-28.21
-30.41
-32.38
-34.52
-37.14
-40.06
-42.54
-43.47
-41.93
-37.70
-31.32
-23.83
-16.25
-9.23
-2.94
2.69
7.64
11.66
14.48
16.10
16.89
17.54
18.64
20.37
22.29
23.66
23.77
22.34
19.61
16.19
12.73
9.65
7.02
4.63
2.22
-0.48
-3.58
-7.20
-11.42
-16.22
-21.34
-26.18
-29.89
-31.56
-30.56
-26.80
-20.72
-13.18
-5.09
2.83
10.23
16.99
23.08
28.34
32.52
35.36
36.79
36.93
36.14
34.77
33.13
31.29
29.19
26.72
23.87
20.69
17.36
14.02
10.75
7.52
4.24
0.76
-3.02
-7.15
-11.59
-16.18
-20.58
-24.38
-27.12
-28.38
-27.90
-25.73
-22.13
-17.53
-12.37
-6.91
-1.28
4.43
9.94
14.84
18.55
20.67
21.12
20.22
18.54
16.68
15.07
13.81
12.82
11.93
10.92
9.66
8.04
6.04
3.70
1.16
-1.34
-3.63
-5.67
-7.61
-9.72
-12.31
-15.57
-19.41
-23.47
-27.16
-29.79
-30.83
-29.97
-27.29
-23.16
-18.15
-12.73
-7.24
-1.81
3.49
8.48
12.79
16.01
17.81
18.17
17.47
16.25
15.05
14.19
13.63
13.13
12.34
11.03
9.12
6.75
4.11
1.42
-1.19
-3.72
-6.22
-8.80
-11.58
-14.60
-17.90
-21.46
-25.19
-28.86
-32.06
-34.16
-34.55
-32.76
-28.67
-22.52
-14.96
-6.85
0.94
7.66
12.83
16.30
18.21
18.87
18.65
17.85
16.70
15.32
13.84
12.44
11.28
10.42
9.80
9.28
8.67
7.86
6.90
5.83
4.74
3.54
2.08
0.10
-2.58
-6.01
-10.04
-14.48
-19.08
-23.66
-27.90
-31.39
-33.52
-33.72
-31.63
-27.36
-21.39
-14.43
-7.20
-0.23
6.18
11.87
16.66
20.36
22.82
23.98
24.04
23.35
22.33
21.29
20.35
19.47
18.56
17.53
16.43
15.36
14.42
13.61
12.84
11.97
10.88
9.64
8.36
7.08
5.73
4.02
1.65
-1.61
-5.73
-10.47
-15.49
-20.41
-24.94
-28.77
-31.51
-32.72
-31.95
-28.87
-23.49
-16.07
-7.15
2.58
12.35
21.41
29.07
34.88
38.69
40.78
41.74
42.25
42.85
43.75
44.82
45.83
46.50
46.71
46.44
45.73
44.62
43.13
41.35
39.40
37.42
35.44
33.35
30.90
27.87
24.28
20.37
16.65
13.50
11.02
8.93
6.75
4.00
0.55
-3.42
-7.45
-11.05
-13.86
-15.66
-16.47
-16.46
-16.06
-15.79
-16.11
-17.08
-18.30
-18.89
-18.00
-15.09
-10.32
-4.44
1.41
6.13
8.84
8.99
6.39
1.19
-5.97
-13.97
-21.36
-26.70
-29.18
-28.87
-26.70
-24.03
-22.04
-21.32
-21.82
-23.15
-25.04
-27.56
-31.03
-35.82
-42.01
-49.47
-58.07
-68.04
-80.04
-94.83
-112.67
-132.75
-153.16
-171.32
-185.13
-193.78
-198.28
-200.93
-204.28
-209.85
-217.38
-225.17
-231.15
-234.22
-234.92
-234.99
-236.18
-239.19
-243.20
-246.48
-247.24
-244.33
-237.30
-225.94
-209.93
-188.80
-162.40
-131.47
-97.59
-62.80
-28.76
4.11
36.30
68.55
101.13
133.35
163.61
189.76
209.75
222.28
227.26
225.40
217.78
205.53
189.75
171.52
152.05
132.70
114.85
100.25
89.96
84.08
81.98
82.96
86.47
92.11
99.47
107.90
117.79
128.63
138.71
146.11
149.99
151.08
151.17
152.08
154.90
162.30
174.40
188.23
199.73
206.67
209.72
211.28
213.89
218.76
229.60
246.13
263.38
274.74
276.63
270.17
259.53
249.48
243.30
247.38
262.39
281.87
296.18
298.73
288.68
270.19
250.32
200.93
117.88
24.10
-48.61
-86.92
-99.99
-106.81
-123.33
-155.69
-199.09
-235.90
-251.18
-241.32
-214.73
-184.70
-162.80
-154.23
-157.16
-165.42
-168.61
-162.09
-148.77
-137.29
-132.74
-134.91
-139.99
-143.95
-144.66
-139.59
-128.55
-113.78
-98.17
-82.08
-66.50
-52.13
-39.19
-27.22
-14.35
-0.38
11.36
15.17
6.52
-15.37
-46.02
-77.45
-101.64
-114.65
-116.11
-109.61
-100.00
-90.28
-80.85
-70.02
-56.25
-39.48
-21.49
-4.67
8.85
18.18
23.76
26.57
27.78
27.95
27.34
25.98
24.18
22.30
20.84
20.32
20.96
23.52
27.78
33.11
38.72
44.08
48.83
52.75
55.74
57.59
58.14
57.15
54.53
50.35
44.72
37.75
29.57
20.35
10.46
0.51
-8.97
-17.53
-25.05
-31.71
-37.87
-43.77
-49.24
-53.71
-56.47
-57.03
-55.15
-50.96
-44.73
-36.67
-26.93
-15.81
-3.96
7.63
17.82
25.80
31.49
35.55
39.00
42.65
46.70
50.52
52.96
52.89
49.63
43.16
34.11
23.46
12.25
1.29
-8.90
-18.09
-26.29
-33.62
-40.36
-46.74
-52.91
-58.82
-64.03
-67.75
-69.19
-67.85
-63.77
-57.60
-50.31
-42.81
-35.67
-29.02
-22.88
-17.33
-12.66
-9.34
-7.83
-8.43
-11.21
-16.06
-22.66
-30.54
-39.11
-47.75
-55.99
-63.66
-70.83
-77.73
-84.39
-90.53
-95.44
-97.94
-96.40
-89.02
-74.21
-51.30
-21.16
13.59
49.03
80.99
106.22
123.27
132.52
135.71
134.97
132.22
128.79
125.39
122.20
118.94
115.06
109.87
103.00
94.64
85.56
76.75
68.95
62.40
56.82
51.74
46.78
41.73
36.49
30.90
24.68
17.61
9.77
1.65
-5.93
-12.18
-16.59
-19.12
-20.13
-20.14
-19.60
-18.79
-17.86
-16.86
-15.80
-14.69
-13.57
-12.55
-11.76
-11.43
-11.77
-12.81
-14.27
-15.64
-16.31
-15.89
-14.41
-12.23
-9.89
-7.82
-6.24
-5.14
-4.51
-4.37
-4.88
-6.16
-8.20
-10.85
-13.84
-16.95
-20.07
-23.14
-26.05
-28.57
-30.31
-30.91
-30.13
-27.93
-24.55
-20.35
-15.77
-11.32
-7.55
-4.93
-3.79
-4.17
-5.77
-8.03
-10.31
-12.11
-13.20
-13.67
-13.79
-13.85
-14.07
-14.47
-14.95
-15.38
-15.69
-15.88
-16.08
-16.41
-16.98
-17.85
-19.12
-20.83
-22.91
-25.14
-27.02
-27.85
-27.05
-24.36
-20.04
-14.84
-9.67
-5.29
-2.01
0.24
1.80
2.87
3.49
3.56
3.01
2.08
1.24
1.04
1.83
3.48
5.46
7.02
7.57
6.95
5.47
3.68
2.04
0.76
-0.39
-1.80
-3.79
-6.43
-9.53
-12.76
-15.81
-18.42
-20.38
-21.44
-21.37
-19.98
-17.25
-13.39
-8.74
-3.74
1.23
5.84
9.85
13.02
15.18
16.26
16.31
15.58
14.37
13.06
11.89
11.01
10.37
9.86
9.26
8.39
7.14
5.47
3.41
1.02
-1.66
-4.51
-7.35
-10.01
-12.37
-14.44
-16.41
-18.61
-21.25
-24.27
-27.20
-29.26
-29.64
-27.80
-23.74
-18.01
-11.42
-4.81
1.25
6.48
10.76
14.06
16.24
17.22
16.98
15.71
13.79
11.69
9.87
8.61
8.00
7.99
8.34
8.75
8.95
8.72
7.98
6.78
5.23
3.42
1.39
-0.90
-3.47
-6.25
-9.11
-11.87
-14.40
-16.77
-19.17
-21.83
-24.80
-27.76
-30.06
-30.91
-29.77
-26.62
-21.95
-16.59
-11.23
-6.21
-1.50
3.09
7.64
11.99
15.75
18.62
20.46
21.45
21.89
22.06
22.03
21.68
20.77
19.10
16.68
13.65
10.29
6.90
3.73
0.88
-1.64
-3.89
-5.91
-7.72
-9.29
-10.65
-11.93
-13.30
-14.96
-16.99
-19.26
-21.48
-23.36
-24.65
-25.30
-25.35
-24.84
-23.65
-21.52
-18.20
-13.64
-8.04
-1.91
4.20
9.83
14.63
18.43
21.13
22.71
23.24
22.91
22.07
21.05
20.11
19.35
18.68
17.96
16.99
15.56
13.63
11.18
8.41
5.66
3.31
1.63
0.63
0.07
-0.44
-1.22
-2.36
-3.72
-5.08
-6.31
-7.45
-8.67
-10.18
-12.06
-14.26
-16.69
-19.24
-21.82
-24.26
-26.30
-27.58
-27.74
-26.61
-24.16
-20.59
-16.09
-10.90
-5.26
0.52
6.04
10.90
14.92
18.18
20.91
23.32
25.40
26.92
27.62
27.44
26.63
25.64
24.82
24.21
23.62
22.72
21.35
19.61
17.77
16.07
14.51
12.93
11.07
8.80
6.21
3.57
1.21
-0.63
-1.87
-2.62
-3.16
-3.81
-4.75
-5.95
-7.19
-8.21
-8.88
-9.32
-9.82
-10.65
-11.88
-13.27
-14.38
-14.73
-14.03
-12.26
-9.59
-6.29
-2.61
1.25
5.11
8.70
11.76
14.06
15.51
16.20
16.45
16.61
16.94
17.52
18.22
18.78
18.96
18.62
17.71
16.40
14.89
13.40
12.11
11.14
10.46
9.96
9.50
8.95
8.22
7.31
6.26
5.08
3.82
2.49
1.17
-0.03
-0.96
-1.49
-1.65
-1.47
-1.05
-0.58
-0.15
0.07
0.02
-0.23
-0.42
-0.13
1.16
3.80
7.84
13.00
18.76
24.54
29.76
33.98
36.81
38.10
37.94
36.80
35.24
34.09
34.23
36.18
39.93
44.92
50.32
55.26
58.90
60.26
58.40
52.65
42.60
28.25
10.09
-10.81
-32.89
-54.30
-73.64
-89.59
-100.81
-106.25
-105.62
-99.53
-89.18
-76.16
-62.10
-49.78
-41.08
-36.25
-34.30
-34.07
-34.54
-34.69
-33.49
-30.11
-26.88
-25.55
-25.77
-25.88
-24.79
-22.37
-19.10
-15.63
-12.85
-15.94
-28.07
-47.72
-70.00
-90.27
-105.63
-115.04
-119.03
-119.66
-125.33
-142.10
-169.56
-202.40
-235.11
-263.79
-286.30
-301.61
-275.91
-198.01
-88.72
17.03
97.97
150.50
179.69
192.06
193.65
189.47
178.15
159.54
137.62
118.27
103.53
94.27
89.52
88.06
88.97
87.61
81.20
71.34
62.15
56.48
54.88
55.91
57.45
57.52
53.47
44.00
31.19
18.94
10.06
5.35
3.94
4.47
5.89
6.41
5.04
2.18
-1.02
-3.79
-5.86
-7.25
-7.96
-7.89
-7.51
-7.48
-8.08
-9.43
-11.66
-14.88
-19.06
-23.97
-29.15
-33.92
-37.23
-37.30
-31.73
-18.10
5.05
37.24
75.63
115.43
151.16
178.05
193.27
196.32
188.76
173.30
153.15
131.35
110.45
92.40
78.27
68.10
60.91
55.01
48.79
41.36
33.12
25.52
20.24
18.31
19.38
21.89
23.82
23.62
20.94
16.55
11.72
7.50
4.21
1.57
-0.84
-3.22
-5.44
-7.28
-8.78
-10.33
-12.53
-15.81
-20.35
-25.97
-32.38
-39.28
-46.31
-52.87
-57.99
-60.46
-59.06
-53.15
-42.91
-29.48
-14.67
-0.56
10.93
18.31
20.75
18.20
11.39
1.55
-10.11
-22.82
-36.46
-51.34
-67.55
-84.38
-100.08
-112.25
-118.71
-118.27
-111.14
-98.68
-82.78
-65.60
-49.47
-36.75
-29.70
-29.77
-36.91
-49.35
-64.01
-77.71
-88.24
-95.24
-100.07
-105.16
-112.93
-124.90
-141.23
-160.74
-181.54
-201.75
-220.18
-236.58
-251.55
-265.79
-279.71
-293.21
-306.07
-318.48
-331.25
-345.43
-361.22
-377.01
-388.85
-391.14
-378.26
-346.43
-295.42
-228.90
-153.49
-76.83
-5.43
56.52
107.34
147.17
177.10
198.58
213.15
222.44
228.25
232.45
236.53
241.29
246.41
250.44
251.29
247.09
237.23
222.78
206.31
190.78
178.15
168.28
159.01
147.44
131.64
111.79
90.16
69.95
53.69
42.07
33.77
26.04
16.06
2.14
-15.59
-35.09
-53.19
-66.14
-71.57
-69.54
-62.78
-54.63
-48.48
-46.62
-49.55
-55.67
-61.27
-62.67
-57.84
-47.61
-34.11
-20.19
-8.14
1.10
8.13
15.64
25.33
36.58
46.22
53.04
57.44
61.50
68.04
79.75
101.94
137.01
182.72
231.36
279.53
324.93
365.48
398.29
421.21
441.56
465.38
492.62
512.86
523.57
523.18
510.18
481.65
435.81
384.85
338.00
295.22
243.45
187.64
139.04
109.96
106.39
129.00
189.90
291.96
422.08
546.73
652.80
734.41
790.48
820.18
730.45
493.62
171.55
-67.87
-215.95
-294.19
-340.19
-366.36
-379.80
-385.01
-370.41
-331.42
-278.34
-240.20
-223.42
-225.27
-238.46
-258.50
-281.99
-294.27
-286.77
-263.53
-244.97
-236.26
-237.04
-243.97
-255.46
-269.98
-278.34
-274.90
-261.83
-251.44
-246.26
-245.22
-245.45
-245.59
-245.03
-239.92
-228.42
-212.46
-198.62
-188.43
-181.46
-176.40
-172.62
-169.59
-165.29
-158.13
-147.74
-135.76
-122.50
-108.18
-93.09
-77.83
-62.91
-48.73
-35.69
-24.34
-15.28
-9.07
-5.94
-5.67
-7.56
-10.50
-13.39
-15.49
-16.73
-17.45
-18.31
-19.80
-22.15
-25.02
-27.45
-28.44
-27.40
-24.49
-20.52
-16.69
-14.12
-13.96
-16.42
-20.43
-24.21
-26.04
-24.99
-20.95
-14.69
-7.52
-1.90
0.67
0.45
-1.02
-2.28
-2.59
-1.84
-0.31
1.62
2.26
1.06
-0.56
-0.61
1.60
5.12
8.16
9.12
7.00
-0.58
-14.56
-33.43
-54.25
-74.36
-91.48
-103.29
-107.69
-90.95
-50.73
0.25
44.46
72.83
86.12
89.53
88.38
86.03
83.68
79.09
70.97
60.80
51.65
45.69
43.25
43.38
44.65
45.67
44.01
38.76
31.34
24.29
19.41
17.11
16.81
17.59
18.45
17.64
14.38
9.35
4.14
0.02
-2.43
-3.27
-2.91
-2.05
-1.92
-3.39
-6.45
-10.33
-14.03
-16.70
-17.74
-17.00
-14.83
-12.18
-9.93
-8.38
-7.19
-5.56
-2.48
2.79
10.53
20.66
32.76
45.98
58.76
68.72
73.10
69.74
58.29
40.76
21.06
3.57
-8.75
-15.34
-17.86
-18.80
-19.96
-21.54
-22.42
-21.22
-17.47
-12.06
-6.75
-3.16
-1.99
-2.81
-4.47
-5.79
-6.30
-6.36
-6.80
-8.37
-11.19
-14.79
-18.34
-21.14
-22.97
-24.15
-25.34
-27.22
-30.16
-33.94
-37.99
-41.53
-43.85
-44.58
-44.00
-42.74
-41.52
-41.26
-42.25
-44.26
-46.87
-49.61
-52.16
-54.34
-55.96
-56.62
-55.74
-52.65
-47.01
-38.95
-28.79
-17.22
-5.24
6.06
15.77
23.34
28.58
31.53
32.38
32.04
31.29
30.32
28.76
26.08
22.09
16.99
11.15
4.88
-0.05
-2.23
-1.54
0.90
3.56
5.46
6.52
7.29
8.66
13.74
24.39
39.51
55.17
66.90
72.51
73.07
72.52
75.95
90.87
121.71
167.21
220.96
274.75
321.72
357.52
379.86
368.50
313.38
221.23
114.35
17.14
-55.84
-101.38
-123.38
-128.60
-122.11
-105.79
-81.00
-51.14
-22.06
0.21
12.23
13.94
8.03
-5.40
-21.44
-35.52
-45.57
-52.31
-57.76
-63.53
-70.32
-78.15
-86.58
-92.87
-94.56
-90.61
-81.73
-69.68
-56.30
-43.07
-31.19
-21.47
-13.37
-6.46
-0.88
2.61
3.29
1.08
-3.40
-9.12
-15.01
-19.86
-22.95
-24.21
-23.90
-22.42
-20.17
-17.83
-16.44
-17.27
-21.17
-28.16
-37.19
-46.42
-53.96
-58.60
-60.16
-59.25
-56.64
-52.66
-47.21
-40.03
-31.33
-21.96
-13.35
-6.82
-2.91
-1.18
-0.48
0.45
2.23
4.57
6.49
6.86
5.10
1.45
-3.05
-6.95
-8.82
-7.72
-3.46
3.18
10.56
16.48
18.87
16.45
9.33
-1.00
-12.14
-21.68
-27.85
-30.02
-28.63
-24.81
-19.96
-15.41
-12.13
-10.72
-11.21
-13.20
-15.93
-18.49
-20.06
-20.04
-18.10
-14.21
-8.68
-2.15
4.43
10.03
13.82
15.52
15.47
14.51
13.58
13.33
13.81
14.53
14.73
13.79
11.57
8.43
5.09
2.33
0.74
0.58
1.79
3.97
6.39
7.98
7.52
4.03
-2.74
-12.03
-22.09
-30.69
-35.86
-36.46
-32.45
-24.67
-14.33
-2.58
9.68
21.69
32.60
41.39
47.04
48.93
47.13
42.44
36.13
29.48
23.33
17.98
13.31
9.19
5.72
3.28
2.25
2.63
3.90
5.11
5.27
3.82
0.75
-3.44
-8.09
-12.67
-17.05
-21.40
-25.96
-30.70
-35.26
-38.86
-40.63
-39.90
-36.47
-30.69
-23.35
-15.37
-7.52
-0.20
6.50
12.78
18.96
25.35
32.13
39.24
46.21
52.09
55.62
55.68
51.66
43.80
33.17
21.29
9.69
-0.37
-8.04
-12.83
-14.62
-13.69
-10.87
-7.43
-4.83
-4.30
-6.54
-11.54
-18.73
-27.20
-35.94
-43.97
-50.36
-54.31
-55.20
-52.77
-47.19
-39.04
-29.28
-18.96
-9.06
-0.31
6.90
12.43
16.38
18.88
20.14
20.41
19.99
19.24
18.44
17.71
16.94
15.90
14.38
12.40
10.15
7.95
6.01
4.27
2.51
0.41
-2.22
-5.34
-8.74
-12.14
-15.32
-18.05
-20.16
-21.34
-21.22
-19.42
-15.75
-10.28
-3.43
4.17
11.85
19.00
25.20
30.18
33.76
35.92
36.74
36.49
35.58
34.50
33.58
32.99
32.63
32.23
31.47
30.08
27.96
25.14
21.81
18.22
14.62
11.15
7.74
4.15
0.00
-4.98
-10.73
-16.70
-21.99
-25.54
-26.57
-24.81
-20.57
-14.62
-7.93
-1.43
4.23
8.63
11.60
13.11
13.23
12.19
10.35
8.21
6.29
4.94
4.28
4.13
4.14
3.91
3.23
2.01
0.38
-1.49
-3.40
-5.23
-6.91
-8.44
-9.84
-11.20
-12.56
-14.00
-15.54
-17.20
-18.92
-20.56
-21.83
-22.32
-21.61
-19.42
-15.79
-11.15
-6.25
-1.88
1.33
3.15
3.77
3.66
3.34
3.15
3.18
3.25
3.06
2.31
0.88
-1.13
-3.49
-5.91
-8.20
-10.31
-12.29
-14.25
-16.31
-18.57
-21.11
-24.05
-27.37
-30.87
-34.06
-36.23
-36.57
-34.48
-29.79
-22.82
-14.31
-5.18
3.67
11.54
17.98
22.77
25.93
27.64
28.21
27.99
27.30
26.36
25.25
23.96
22.44
20.69
18.73
16.65
14.53
12.45
10.43
8.48
6.50
4.40
1.98
-0.89
-4.28
-8.08
-11.97
-15.43
-17.87
-18.76
-17.77
-14.90
-10.48
-4.98
1.08
7.27
13.25
18.68
23.16
26.28
27.74
27.56
26.10
23.98
21.90
20.40
19.60
19.29
19.07
18.59
17.65
16.22
14.40
12.40
10.41
8.50
6.67
4.86
2.98
0.90
-1.56
-4.60
-8.00
-11.41
-14.31
-16.17
-16.49
-14.87
-11.24
-5.94
0.34
7.27
14.43
21.37
27.57
32.67
36.55
39.23
40.68
40.77
40.33
40.16
40.86
42.59
45.17
48.33
51.82
55.41
58.96
63.69
70.70
80.29
91.42
102.31
111.37
117.90
122.28
118.06
102.00
74.82
41.29
7.03
-23.90
-49.21
-67.56
-78.09
-81.12
-76.75
-66.97
-54.36
-42.10
-32.82
-27.88
-27.39
-30.58
-36.55
-43.55
-50.38
-55.22
-57.25
-56.77
-54.89
-53.81
-54.57
-57.59
-62.33
-68.30
-74.01
-78.89
-82.67
-85.06
-85.78
-84.59
-81.87
-78.11
-74.02
-70.08
-66.80
-64.16
-61.63
-58.42
-53.76
-47.35
-39.26
-29.88
-19.71
-9.47
0.16
8.73
15.96
21.78
26.13
29.04
30.69
31.39
31.45
31.21
30.97
30.87
30.90
30.86
30.46
29.50
27.98
26.09
24.14
22.44
21.20
20.41
19.83
19.11
17.84
15.64
12.24
7.53
1.66
-4.89
-11.35
-16.80
-20.39
-21.53
-20.11
-16.41
-11.00
-4.56
2.28
8.94
14.92
19.78
23.14
24.83
24.92
23.77
21.90
19.81
17.87
16.21
14.77
13.42
12.07
10.72
9.40
8.10
6.73
5.11
3.09
0.64
-2.13
-4.93
-7.51
-9.70
-11.51
-13.09
-14.73
-16.72
-19.27
-22.34
-25.69
-28.76
-30.82
-31.20
-29.45
-25.52
-19.84
-13.08
-5.98
0.84
6.99
12.23
16.39
19.36
21.14
21.84
21.74
21.17
20.44
19.75
19.16
18.64
18.15
17.69
17.30
16.95
16.54
15.90
14.87
13.36
11.37
9.05
6.62
4.25
2.06
0.00
-2.08
-4.47
-7.44
-11.22
-15.78
-20.81
-25.67
-29.52
-31.57
-31.31
-28.70
-24.09
-18.12
-11.48
-4.77
1.63
7.38
12.22
15.89
18.29
19.48
19.76
19.53
19.12
18.74
18.42
18.12
17.79
17.41
16.98
16.39
15.47
14.07
12.10
9.68
7.03
4.34
1.71
-0.94
-3.73
-6.77
-10.03
-13.42
-16.86
-20.33
-23.84
-27.29
-30.36
-32.50
-33.12
-31.74
-28.26
-22.93
-16.32
-9.10
-1.89
4.87
10.86
15.85
19.65
22.15
23.35
23.43
22.73
21.66
20.58
19.70
19.03
18.47
17.88
17.15
16.22
15.04
13.54
11.63
9.20
6.27
2.98
-0.38
-3.47
-6.04
-8.07
-9.77
-11.53
-13.77
-16.71
-20.31
-24.18
-27.77
-30.47
-31.78
-31.40
-29.27
-25.54
-20.50
-14.56
-8.15
-1.69
4.47
10.01
14.71
18.36
20.90
22.31
22.69
22.24
21.22
19.94
18.70
17.73
17.17
17.05
17.27
17.62
17.88
17.85
17.39
16.42
14.91
12.86
10.29
7.32
4.16
1.05
-1.77
-4.21
-6.36
-8.49
-10.93
-13.82
-16.98
-19.91
-21.85
-22.08
-20.17
-16.12
-10.35
-3.53
3.58
10.36
16.32
21.21
24.85
27.15
28.00
27.32
25.11
21.42
16.47
10.56
4.00
-2.95
-10.11
-17.39
-24.66
-31.62
-37.89
-43.00
-46.68
-48.89
-49.89
-50.18
-50.27
-50.52
-50.99
-51.54
-51.91
-52.07
-52.09
-52.28
-53.06
-54.73
-57.18
-59.78
-61.57
-61.46
-58.88
-53.78
-46.75
-38.98
-31.70
-25.80
-21.56
-18.70
-16.54
-14.50
-11.78
-7.64
-1.58
6.34
15.15
22.72
26.09
24.29
17.09
7.01
-1.29
-3.51
1.92
13.46
27.88
42.20
54.89
65.41
73.48
78.08
77.52
70.72
58.45
43.56
29.80
20.13
15.29
14.10
14.40
14.33
13.12
11.07
8.92
7.24
6.13
5.26
4.24
2.87
1.24
-0.41
-1.74
-2.53
-2.87
-3.02
-3.40
-4.24
-5.46
-6.76
-8.02
-9.24
-10.58
-11.91
-12.64
-11.74
-8.16
-1.53
7.45
17.00
24.99
29.81
30.86
28.50
23.74
17.17
9.29
0.75
-7.30
-13.09
-14.73
-11.12
-2.66
8.59
19.62
27.65
31.30
30.85
27.77
23.78
19.99
16.76
13.93
11.39
9.42
8.56
9.20
11.17
13.70
15.83
16.74
16.27
14.90
13.56
13.12
14.21
17.01
21.19
25.77
29.13
29.28
24.52
14.30
-0.28
-16.58
-31.47
-42.43
-48.66
-51.05
-51.43
-51.34
-51.25
-50.57
-48.42
-44.46
-39.22
-33.92
-29.67
-26.85
-25.03
-23.36
-20.83
-17.06
-12.32
-7.25
-2.56
1.30
4.23
6.46
8.30
10.03
11.70
13.16
14.17
14.54
14.24
13.38
12.20
10.93
9.74
8.67
7.63
6.57
5.48
4.41
3.40
2.48
1.64
0.80
-0.09
-1.09
-2.15
-3.15
-3.81
-3.80
-2.85
-0.89
1.88
5.02
7.97
10.34
11.93
12.80
13.12
12.96
12.16
10.41
7.50
3.50
-1.11
-5.56
-9.10
-11.19
-11.75
-11.06
-9.66
-8.07
-6.74
-5.91
-5.62
-5.84
-6.48
-7.43
-8.58
-9.90
-11.31
-12.75
-14.22
-15.72
-17.32
-19.09
-21.14
-23.62
-26.53
-29.63
-32.36
-33.92
-33.52
-30.67
-25.41
-18.34
-10.35
-2.33
5.07
11.54
17.02
21.48
24.81
26.96
27.88
27.73
26.80
25.44
23.94
22.47
21.02
19.52
17.94
16.25
14.48
12.68
10.84
8.89
6.66
4.00
0.92
-2.27
-5.02
-6.58
-6.36
-4.23
-0.68
3.25
6.22
7.04
5.01
0.05
-7.25
-15.70
-23.78
-29.82
-32.37
-30.53
-24.21
-14.14
-1.61
11.82
24.81
36.41
46.02
53.29
58.00
60.07
59.64
57.16
53.29
48.75
44.14
39.74
35.59
31.58
27.68
23.98
20.68
17.90
15.55
13.26
10.48
6.72
1.75
-4.20
-10.50
-16.35
-21.06
-24.32
-26.30
-27.46
-28.44
-29.75
-31.69
-34.31
-37.46
-40.82
-43.91
-46.13
-46.81
-45.41
-41.64
-35.64
-27.95
-19.26
-10.28
-1.63
6.26
13.05
18.49
22.42
24.79
25.76
25.62
24.80
23.66
22.46
21.30
20.12
18.83
17.32
15.57
13.67
11.74
9.88
8.08
6.16
3.96
1.41
-1.36
-4.07
-6.47
-8.43
-10.12
-12.03
-14.72
-18.48
-23.06
-27.86
-32.03
-34.81
-35.55
-34.09
-30.80
-26.37
-21.39
-16.11
-10.48
-4.36
2.21
9.16
15.92
21.39
24.52
24.84
22.88
19.86
17.35
16.86
19.83
26.76
36.83
47.96
57.51
63.05
63.08
57.66
45.88
30.02
14.87
5.23
2.84
5.64
9.68
11.36
8.85
2.29
-6.49
-15.47
-23.35
-29.74
-34.65
-38.05
-39.80
-39.77
-37.94
-34.33
-29.48
-24.43
-20.43
-18.25
-17.89
-18.69
-19.74
-20.21
-19.44
-17.40
-14.62
-11.96
-10.10
-9.24
-9.15
-9.48
-9.98
-10.49
-10.87
-10.77
-9.51
-6.24
-0.37
7.89
17.37
26.34
33.16
36.89
37.42
35.42
31.51
26.30
20.44
14.48
9.04
4.68
1.66
-0.07
-1.03
-1.87
-3.12
-5.14
-7.87
-10.95
-13.66
-15.37
-15.70
-14.87
-13.54
-12.51
-12.25
-12.71
-13.40
-13.59
-12.90
-11.41
-9.61
-8.12
-7.38
-7.47
-8.15
-9.21
-10.21
-10.75
-10.48
-9.30
-7.48
-5.67
-4.77
-5.46
-8.10
-12.24
-16.73
-20.21
-21.61
-20.57
-17.52
-13.42
-8.49
-3.52
0.95
4.77
7.99
10.55
11.99
11.58
8.50
2.44
-6.35
-16.77
-27.20
-36.09
-42.43
-46.14
-48.02
-49.45
-52.03
-57.31
-66.05
-77.87
-91.08
-103.06
-110.94
-112.65
-107.56
-96.76
-82.74
-68.38
-56.05
-47.08
-41.69
-39.28
-38.85
-38.91
-37.78
-33.78
-25.37
-11.53
7.92
32.07
59.07
86.45
112.04
133.99
150.92
162.00
167.25
167.42
163.72
157.27
148.86
139.66
130.54
121.76
113.11
104.23
94.99
85.31
75.10
64.38
54.73
47.84
44.45
43.94
44.74
45.19
43.93
40.11
33.66
26.99
22.95
23.38
28.86
39.36
54.92
75.34
99.72
115.57
113.40
91.89
58.45
22.59
-9.38
-34.61
-52.22
-62.57
-67.16
-67.18
-64.97
-64.13
-66.95
-74.63
-85.97
-98.29
-109.39
-118.37
-124.54
-126.10
-123.22
-116.43
-106.03
-93.42
-81.17
-72.46
-68.67
-67.49
-63.96
-53.42
-34.11
-6.68
24.50
53.64
75.55
88.26
92.90
92.55
89.93
83.68
75.05
64.21
52.64
39.18
23.97
7.92
-7.68
-21.85
-33.74
-42.09
-46.16
-45.78
-42.03
-35.32
-27.90
-22.83
-23.04
-30.13
-43.15
-59.13
-73.89
-83.54
-85.16
-78.08
-63.73
-45.21
-26.08
-8.80
6.02
19.23
31.78
44.11
55.15
62.87
65.18
61.23
49.77
32.95
15.37
0.80
-9.78
-17.37
-22.40
-23.85
-20.30
-11.67
0.33
12.05
19.60
21.02
17.12
10.70
4.70
0.56
-2.00
-4.08
-7.12
-12.18
-19.37
-27.82
-35.95
-42.07
-44.65
-42.37
-33.75
-18.45
2.25
25.31
46.69
62.63
70.97
71.88
65.14
53.82
41.91
32.88
28.45
28.19
30.40
33.26
35.59
36.97
37.62
35.55
28.71
15.85
-2.32
-22.44
-39.20
-47.60
-45.48
-34.36
-19.33
-6.68
-1.27
-5.27
-17.90
-36.39
-57.19
-76.86
-91.97
-100.35
-103.23
-101.57
-97.42
-92.92
-89.01
-84.98
-78.94
-68.34
-52.32
-32.44
-11.89
6.02
19.33
28.16
34.14
39.45
46.79
57.90
73.16
90.07
106.12
118.39
123.92
119.98
100.48
65.97
24.91
-10.19
-30.01
-32.26
-21.26
-3.85
13.61
27.28
36.90
43.48
47.61
48.73
47.18
41.60
32.07
19.93
7.23
-3.27
-9.82
-12.56
-13.22
-13.97
-16.60
-21.33
-27.25
-32.95
-36.32
-36.15
-32.65
-27.35
-22.07
-18.14
-15.64
-13.90
-12.32
-10.38
-8.32
-6.84
-6.42
-6.55
-5.50
-0.86
9.13
23.53
38.94
51.25
57.91
58.48
53.84
45.23
33.89
20.95
7.29
-5.62
-16.30
-23.76
-28.03
-29.95
-30.77
-31.42
-32.40
-34.76
-38.37
-43.17
-49.18
-56.33
-64.07
-71.38
-76.73
-76.91
-71.65
-61.79
-49.21
-36.41
-25.78
-18.86
-15.90
-15.47
-15.02
-12.07
-4.44
8.74
26.87
48.16
70.65
91.57
107.93
116.85
116.11
105.45
86.73
63.63
40.53
21.06
7.07
-1.48
-5.94
-8.03
-8.79
-8.68
-7.83
-6.39
-4.65
-2.97
-1.52
-0.51
-0.08
-0.24
-0.93
-2.15
-3.96
-6.22
-8.60
-10.61
-12.16
-13.28
-13.64
-12.52
-9.06
-2.77
6.19
16.77
27.27
35.25
38.88
37.94
33.80
28.46
23.53
19.68
16.62
13.40
8.04
-1.21
-14.87
-32.23
-51.73
-71.49
-89.24
-102.62
-104.85
-92.01
-66.42
-35.89
-8.84
9.61
18.23
18.47
13.12
5.32
-3.02
-11.35
-18.70
-23.78
-25.63
-23.92
-18.69
-10.24
0.89
13.11
24.47
33.46
39.11
40.50
37.48
31.15
23.58
17.17
13.45
12.84
15.08
19.17
23.52
26.42
26.69
23.63
17.12
7.40
-4.55
-16.11
-23.57
-24.60
-20.07
-13.29
-8.01
-6.64
-9.52
-15.23
-21.51
-26.55
-29.77
-32.44
-34.74
-36.30
-36.54
-34.84
-31.03
-25.27
-18.12
-10.29
-2.33
5.69
13.62
20.60
24.84
23.80
15.97
2.36
-13.88
-28.67
-38.43
-40.95
-35.36
-21.95
-2.16
21.30
44.59
63.42
74.31
76.17
72.08
65.35
59.48
56.84
57.79
60.60
62.28
59.97
52.13
37.12
17.29
-3.49
-21.97
-36.77
-48.22
-56.83
-62.82
-66.18
-67.08
-65.96
-63.49
-60.71
-58.78
-57.24
-55.66
-53.26
-49.16
-42.63
-33.18
-20.37
-4.46
13.62
32.32
49.62
63.71
73.20
77.55
74.48
64.09
49.52
35.66
26.09
21.56
20.93
22.51
25.06
27.77
31.13
34.47
36.43
35.60
31.25
23.85
14.83
6.02
-1.19
-5.73
-7.22
-5.44
-0.78
5.64
12.02
16.32
17.02
13.34
5.83
-3.98
-14.18
-23.05
-29.44
-32.83
-34.37
-34.09
-32.15
-28.74
-24.27
-19.59
-15.69
-13.38
-13.05
-14.41
-16.62
-18.92
-21.01
-22.05
-22.41
-23.01
-24.82
-28.33
-33.33
-38.92
-44.05
-47.81
-49.45
-48.69
-45.53
-40.27
-33.47
-25.91
-18.42
-11.92
-7.13
-4.24
-3.06
-3.01
-3.35
-3.39
-2.55
-0.46
2.76
6.54
10.06
12.19
11.85
8.31
1.60
-7.32
-16.67
-24.38
-28.69
-28.32
-23.02
-13.57
-1.59
11.10
23.19
34.23
44.61
53.22
58.95
61.38
61.33
60.21
59.11
58.22
56.95
54.37
49.75
43.30
36.15
29.81
25.51
23.71
24.09
25.83
28.11
30.10
31.36
31.49
30.08
26.84
21.86
15.84
9.79
4.69
0.84
-2.11
-5.00
-8.70
-13.83
-20.57
-28.61
-37.33
-45.44
-51.21
-52.68
-48.57
-38.77
-24.89
-9.92
2.93
11.39
14.98
14.85
12.87
10.49
8.29
5.98
3.05
-0.52
-4.10
-6.74
-7.88
-7.07
-5.44
-4.30
-4.48
-5.96
-7.86
-9.21
-9.46
-8.86
-8.30
-8.86
-10.92
-14.20
-17.78
-20.54
-21.87
-21.99
-21.80
-22.34
-24.76
-28.27
-31.50
-32.75
-30.66
-24.79
-15.82
-5.32
4.75
12.63
17.48
19.35
19.09
18.00
17.27
17.55
18.98
21.27
23.92
26.44
28.30
29.01
28.25
26.06
22.82
19.32
16.39
14.46
13.36
12.23
9.92
5.39
-1.23
-9.44
-18.24
-26.43
-32.89
-36.82
-37.75
-35.58
-30.51
-23.16
-14.60
-6.04
1.39
6.99
10.76
13.30
15.58
18.43
22.18
26.41
30.24
32.74
33.37
32.26
30.09
27.74
25.93
24.90
24.33
23.60
22.07
19.34
15.33
10.31
4.71
-0.90
-5.99
-10.13
-13.08
-14.89
-15.87
-16.62
-17.70
-19.50
-22.07
-25.04
-27.87
-29.85
-30.37
-28.90
-25.18
-19.22
-11.38
-2.40
6.72
14.91
21.30
25.42
27.31
27.40
26.25
24.38
22.14
19.72
17.22
14.73
12.32
10.07
8.00
6.06
4.12
2.06
-0.22
-2.71
-5.30
-7.80
-10.04
-11.92
-13.42
-14.62
-15.66
-16.71
-17.92
-19.49
-21.59
-24.32
-27.63
-31.20
-34.50
-36.82
-37.46
-35.96
-32.16
-26.30
-18.89
-10.67
-2.41
5.16
11.45
16.11
19.04
20.39
20.43
19.54
18.11
16.45
14.84
13.43
12.30
11.38
10.46
9.29
7.65
5.43
2.73
-0.21
-3.10
-5.76
-8.11
-10.23
-12.29
-14.43
-16.77
-19.41
-22.42
-25.80
-29.47
-33.10
-36.18
-38.08
-38.14
-35.96
-31.49
-25.05
-17.33
-9.13
-1.27
5.66
11.32
15.62
18.60
20.39
21.13
21.07
20.43
19.55
18.76
18.25
18.02
17.85
17.43
16.51
15.03
13.13
11.00
8.83
6.64
4.43
2.13
-0.24
-2.64
-5.06
-7.57
-10.30
-13.43
-17.07
-21.27
-25.91
-30.69
-35.12
-38.50
-40.07
-39.24
-35.81
-30.09
-22.81
-14.90
-7.15
-0.08
6.10
11.31
15.52
18.61
20.47
21.08
20.61
19.42
17.95
16.59
15.53
14.77
14.17
13.57
12.89
12.12
11.30
10.39
9.27
7.76
5.70
3.06
-0.06
-3.45
-6.95
-10.43
-13.90
-17.40
-21.03
-24.78
-28.53
-31.98
-34.67
-36.05
-35.64
-33.21
-28.86
-23.05
-16.50
-9.92
-3.89
1.27
5.42
8.53
10.51
11.23
10.61
8.76
6.01
2.90
-0.01
-2.36
-4.10
-5.50
-6.98
-8.90
-11.46
-14.64
-18.32
-22.30
-26.37
-30.32
-33.96
-37.06
-39.41
-40.79
-40.96
-39.73
-36.98
-32.73
-27.19
-20.70
-13.66
-6.47
0.56
7.22
13.47
19.58
26.11
33.85
43.51
55.30
68.67
82.19
93.94
102.09
105.37
103.51
97.10
87.40
76.01
64.49
54.15
45.81
39.66
35.21
31.50
27.38
22.07
15.34
7.65
-0.17
-7.41
-13.74
-19.29
-24.37
-29.24
-33.90
-38.13
-41.73
-44.71
-47.30
-49.82
-52.32
-54.42
-55.30
-54.08
-50.20
-43.68
-35.16
-25.62
-16.07
-7.28
0.31
6.54
11.39
14.89
17.14
18.30
18.69
18.71
18.74
19.07
19.78
20.74
21.60
21.87
21.05
18.79
15.03
10.03
4.32
-1.53
-7.07
-12.08
-16.59
-20.81
-24.94
-29.08
-33.15
-36.85
-39.71
-41.13
-40.56
-37.64
-32.41
-25.32
-17.22
-9.10
-1.83
4.10
8.55
11.72
13.87
15.17
15.73
15.66
15.24
14.88
15.02
15.88
17.34
18.84
19.71
19.39
17.73
14.98
11.63
8.14
4.70
1.23
-2.57
-6.95
-11.98
-17.42
-22.90
-28.04
-32.63
-36.55
-39.63
-41.55
-41.90
-40.37
-36.90
-31.77
-25.53
-18.80
-12.05
-5.50
0.69
6.29
10.88
14.07
15.77
16.13
15.61
14.73
14.14
14.19
14.80
15.55
16.01
15.99
15.47
14.49
13.04
11.63
10.66
10.05
9.40
8.29
6.55
4.30
1.66
-1.34
-3.71
-4.62
-3.70
-1.01
3.37
9.81
18.73
30.35
44.38
61.43
81.50
103.37
124.86
143.42
157.30
165.79
169.24
160.76
137.88
104.10
67.67
36.25
13.11
-2.31
-12.33
-19.33
-25.01
-29.30
-32.10
-33.99
-35.54
-37.81
-40.47
-42.17
-41.62
-38.52
-32.92
-26.04
-19.99
-17.19
-19.12
-25.63
-35.45
-46.76
-57.63
-66.00
-70.64
-71.35
-69.13
-65.20
-60.41
-55.18
-49.85
-44.81
-40.23
-36.18
-30.77
-23.08
-13.08
-1.49
10.50
21.56
30.53
36.91
40.98
43.88
46.51
49.43
52.64
55.65
57.77
58.51
57.85
56.20
54.25
52.43
50.95
49.83
48.88
47.69
45.69
42.16
36.50
28.47
18.32
7.01
-4.01
-13.30
-19.87
-23.49
-24.47
-23.48
-21.29
-18.76
-16.80
-16.28
-17.96
-22.20
-28.80
-37.02
-45.66
-53.46
-59.42
-62.98
-64.17
-63.50
-61.76
-59.76
-58.09
-56.91
-55.97
-54.87
-53.24
-50.95
-48.13
-45.04
-41.98
-39.19
-36.77
-34.78
-33.12
-31.76
-30.73
-30.16
-30.33
-31.49
-33.59
-36.13
-38.13
-38.46
-36.18
-31.00
-23.26
-13.87
-3.94
5.56
13.93
20.78
25.99
29.62
31.87
32.96
33.11
32.46
31.08
29.06
26.56
23.93
21.53
19.57
17.90
16.04
13.38
9.44
4.17
-2.00
-8.27
-13.79
-17.94
-20.50
-21.56
-21.51
-20.93
-20.56
-21.24
-23.60
-27.97
-34.14
-41.28
-48.04
-52.89
-54.53
-52.35
-46.60
-38.02
-27.88
-17.79
-9.28
-3.39
-0.41
0.17
-0.55
-1.39
-0.97
1.45
5.73
11.02
16.24
20.58
23.69
25.83
27.49
29.84
33.80
39.49
46.12
52.35
56.83
58.79
58.43
54.22
46.45
37.15
28.91
23.08
19.13
15.76
11.98
8.70
5.93
4.09
3.41
3.70
4.63
6.13
8.69
12.06
16.40
21.51
27.43
33.90
40.27
45.53
48.63
48.83
45.82
39.93
31.60
21.76
11.27
0.75
-9.34
-18.51
-25.96
-30.80
-32.31
-30.42
-25.50
-18.32
-9.82
-0.84
7.94
16.10
23.26
28.97
32.61
33.91
32.97
30.35
26.68
22.31
17.45
12.29
7.27
3.20
1.26
2.51
6.89
12.98
17.77
18.40
14.27
7.17
-0.18
-5.65
-9.67
-13.47
-18.18
-24.09
-30.32
-35.39
-37.47
-36.03
-31.98
-27.28
-23.72
-22.17
-22.49
-23.93
-25.63
-26.96
-27.75
-28.01
-28.01
-27.76
-27.29
-26.79
-26.64
-27.09
-27.95
-29.09
-30.70
-33.66
-38.37
-44.07
-48.69
-49.50
-44.14
-31.36
-11.70
13.47
39.10
58.39
66.69
64.35
55.41
44.69
35.81
30.16
26.92
23.86
19.21
12.81
6.47
3.06
4.13
9.83
18.59
27.55
33.56
34.80
30.04
21.04
10.54
0.49
-8.73
-18.14
-29.25
-42.79
-57.43
-70.37
-78.45
-79.67
-73.89
-62.41
-47.42
-31.23
-15.74
-1.93
10.23
20.86
30.02
37.91
44.87
51.10
56.56
60.98
64.08
65.80
66.48
66.56
66.31
65.58
63.79
60.17
54.21
46.02
36.28
26.05
16.24
7.23
-1.24
-9.68
-18.42
-27.27
-35.61
-42.76
-48.39
-52.73
-56.40
-60.01
-63.75
-67.08
-69.05
-68.68
-65.31
-58.86
-49.63
-38.35
-25.96
-13.55
-2.19
7.10
13.60
17.19
18.57
19.17
20.35
22.69
25.55
27.42
26.39
21.08
11.59
-0.25
-11.38
-19.12
-22.25
-21.55
-18.78
-16.03
-14.81
-15.34
-16.55
-16.70
-14.29
-8.52
0.78
13.89
30.47
47.23
58.14
56.82
41.54
17.72
-4.87
-17.32
-14.89
0.82
22.85
42.58
53.99
55.78
51.01
46.39
44.60
46.20
49.51
51.51
49.85
44.36
37.24
31.83
30.78
34.39
40.91
46.86
48.37
41.96
27.10
5.71
-18.88
-43.01
-63.41
-76.85
-80.82
-74.54
-59.45
-39.47
-19.92
-5.46
1.93
3.34
2.10
2.28
4.05
6.44
7.86
7.67
6.82
7.01
9.15
12.53
14.97
14.13
9.46
2.48
-4.04
-7.69
-7.81
-5.82
-4.26
-5.46
-10.57
-18.95
-29.12
-39.83
-50.60
-61.44
-71.93
-80.42
-84.31
-81.36
-71.06
-55.60
-39.02
-25.39
-16.97
-13.48
-12.90
-12.91
-12.26
-10.97
-9.85
-9.48
-9.69
-9.68
-8.62
-6.26
-3.11
-0.20
1.45
1.29
-0.54
-3.39
-6.35
-8.66
-10.04
-10.73
-11.38
-12.65
-14.95
-18.22
-22.03
-25.75
-28.84
-30.90
-31.62
-30.71
-27.95
-23.22
-16.70
-8.84
-0.31
8.30
16.50
24.07
30.91
36.90
41.83
45.45
47.57
48.28
47.92
47.01
46.00
45.10
44.11
42.61
40.21
36.78
32.58
28.16
24.06
20.57
17.63
14.99
12.38
9.70
7.00
4.40
1.86
-0.83
-3.92
-7.49
-11.40
-15.36
-19.11
-22.70
-26.50
-30.99
-36.43
-42.60
-48.68
-53.53
-56.00
-55.37
-51.51
-44.87
-36.26
-26.52
-16.32
-6.07
3.94
13.55
22.49
30.44
37.04
42.04
45.34
47.14
47.90
48.18
48.48
49.06
49.92
50.82
51.52
51.79
51.56
50.86
49.68
48.01
45.84
43.18
40.13
36.85
33.50
30.16
26.80
23.32
19.56
15.35
10.59
5.29
-0.38
-6.10
-11.51
-16.27
-20.29
-23.70
-26.87
-30.26
-34.26
-39.03
-44.46
-50.10
-55.30
-59.28
-61.27
-60.80
-57.69
-52.23
-44.99
-36.63
-27.77
-18.79
-9.97
-1.50
6.31
13.12
18.57
22.50
24.98
26.36
27.05
27.41
27.56
27.47
26.98
26.01
24.57
22.76
20.68
18.31
15.62
12.57
9.16
5.55
1.88
-1.76
-5.33
-8.84
-12.28
-15.58
-18.60
-21.17
-23.15
-24.42
-24.92
-24.54
-23.24
-21.18
-18.74
-16.62
-15.58
-16.24
-18.70
-22.54
-26.84
-30.62
-33.04
-33.68
-32.55
-29.84
-25.83
-20.71
-14.74
-8.22
-1.66
4.42
9.61
13.68
16.70
18.88
20.52
21.81
22.89
23.80
24.54
25.07
25.34
25.31
24.98
24.38
23.53
22.44
21.01
19.12
16.67
13.66
10.21
6.53
2.83
-0.73
-4.05
-7.10
-9.82
-12.18
-14.22
-16.04
-17.88
-19.95
-22.26
-24.63
-26.74
-28.43
-29.89
-31.69
-34.47
-38.34
-42.57
-45.54
-45.21
-39.98
-29.37
-14.30
3.38
21.62
39.08
55.50
71.63
88.59
107.25
127.80
149.70
171.84
192.69
210.31
222.38
226.67
222.03
209.26
191.51
173.39
159.24
151.17
148.25
147.03
143.41
134.70
120.61
102.99
84.41
66.73
50.36
34.56
18.35
1.24
-16.41
-33.74
-49.95
-64.63
-77.91
-90.34
-102.62
-115.60
-130.45
-148.94
-173.33
-205.88
-247.82
-298.15
-352.98
-405.79
-448.84
-475.35
-481.52
-467.49
-436.88
-395.34
-348.60
-301.16
-255.85
-214.25
-177.28
-145.70
-119.97
-99.89
-84.22
-70.79
-56.84
-39.83
-18.12
8.60
39.17
71.23
101.70
127.46
146.08
156.34
158.48
154.06
145.45
135.20
125.42
117.45
111.73
108.01
105.64
103.76
101.55
98.24
93.20
86.12
77.07
66.56
55.38
44.34
34.03
24.75
16.71
10.01
4.82
1.25
-0.73
-1.22
-0.39
1.66
4.85
9.08
14.13
19.63
25.21
30.56
35.58
40.27
44.60
48.46
51.61
53.89
55.31
56.15
56.90
58.19
60.51
64.01
68.37
72.71
75.84
76.66
74.67
70.30
64.98
60.72
59.37
61.76
67.13
73.06
76.09
72.89
61.41
41.61
15.38
-14.17
-43.81
-71.01
-94.15
-112.32
-124.89
-131.34
-131.53
