1497356533.00
64.000000
-0.00
-0.00
-0.00
-0.00
-0.00
-0.00
-0.00
-0.00
-0.00
-0.00
0.00
0.01
0.01
-0.00
-0.03
-0.05
-0.05
0.00
0.13
0.36
0.66
1.01
1.37
1.72
2.06
2.40
2.79
3.24
3.80
4.42
5.06
5.66
6.20
6.68
7.15
7.68
8.31
9.14
10.09
11.04
11.88
12.56
13.14
13.76
14.65
15.96
17.91
20.32
22.90
25.38
27.58
29.57
31.68
34.32
37.81
42.54
48.15
54.10
59.83
64.97
69.58
74.14
79.34
85.71
93.76
103.00
112.62
121.73
129.77
136.75
143.30
150.75
157.77
166.64
177.95
191.79
206.97
220.57
228.25
225.36
208.53
176.87
132.76
80.05
23.07
-34.94
-92.44
-149.16
-205.23
-260.37
-313.74
-363.87
-409.83
-450.91
-486.50
-515.74
-537.23
-549.22
-549.96
-538.37
-514.21
-478.67
-433.88
-382.45
-327.02
-269.84
-212.63
-156.66
-102.95
-52.37
-5.90
35.58
71.43
101.35
125.50
144.38
158.69
169.15
176.37
180.75
182.57
182.07
179.51
175.23
169.65
163.18
156.15
148.81
141.30
133.69
126.02
118.33
110.69
103.16
95.80
88.68
81.83
75.25
68.95
62.95
57.25
51.86
46.78
42.03
37.59
33.45
29.61
26.07
22.81
19.83
17.11
14.67
12.48
10.53
8.83
7.35
6.08
5.00
4.08
3.28
2.58
1.98
1.46
1.04
0.71
0.48
0.31
0.18
0.06
-0.08
-0.22
-0.36
-0.47
-0.52
-0.52
-0.48
-0.46
-0.49
-0.60
-0.78
-0.97
-1.11
-1.15
-1.08
-0.95
-0.88
-0.96
-1.27
-1.76
-2.31
-2.75
-2.94
-2.85
-2.62
-2.47
-2.65
-3.28
-4.28
-5.39
-6.29
-6.70
-6.57
-6.14
-5.81
-6.00
-6.92
-8.44
-10.15
-11.50
-12.14
-11.99
-11.35
-10.71
-10.53
-11.09
-12.51
-14.74
-17.58
-20.40
-22.11
-21.25
-16.65
-8.04
3.52
15.87
26.58
34.01
37.93
39.35
39.81
40.43
41.36
42.05
41.80
40.35
38.03
35.52
33.27
31.25
29.10
26.04
21.62
15.89
9.40
2.97
-2.57
-6.78
-9.55
-11.24
-12.36
-13.37
-14.50
-15.66
-16.55
-16.82
-16.25
-14.91
-13.17
-11.53
-10.46
-10.18
-10.54
-11.17
-11.60
-11.51
-10.80
-9.66
-8.40
-7.29
-6.54
-6.28
-6.53
-7.27
-8.36
-9.51
-10.21
-9.98
-8.40
-5.39
-1.28
3.25
7.41
10.46
12.04
12.11
11.00
9.22
7.32
5.70
4.46
3.52
2.62
1.57
0.31
-1.08
-2.32
-3.14
-3.29
-2.67
-1.31
0.63
2.94
5.40
7.79
9.83
11.27
11.97
11.88
11.10
9.75
7.99
5.98
3.78
1.45
-0.94
-3.28
-5.36
-6.95
-7.87
-8.12
-7.94
-7.72
-7.87
-8.58
-9.78
-11.15
-12.34
-13.14
-13.58
-13.88
-14.30
-15.04
-16.11
-17.44
-18.91
-20.40
-21.74
-22.67
-22.81
-21.74
-19.20
-15.17
-9.96
-4.10
1.79
7.20
11.79
15.40
18.03
19.74
20.70
21.14
21.40
21.76
22.38
23.24
24.09
24.72
24.98
24.96
24.87
24.92
25.17
25.57
25.96
26.23
26.33
26.29
26.11
25.77
25.30
24.83
24.57
24.60
24.71
24.29
22.61
19.19
14.15
8.23
2.45
-2.39
-6.11
-9.08
-11.79
-14.45
-16.81
-18.38
-18.95
-18.93
-19.28
-21.10
-25.05
-31.04
-38.17
-45.09
-50.33
-52.65
-51.31
-46.21
-37.89
-27.55
-16.69
-6.74
1.30
7.06
10.69
12.54
12.98
12.26
10.62
8.42
6.16
4.38
3.39
3.16
3.33
3.46
3.26
2.72
2.11
1.79
2.00
2.74
3.78
4.81
5.51
5.68
5.23
4.16
2.58
0.72
-1.16
-2.79
-4.00
-4.88
-5.73
-6.98
-9.02
-11.93
-15.43
-18.95
-21.83
-23.67
-24.50
-24.79
-25.22
-26.38
-28.60
-31.81
-35.60
-39.30
-42.16
-43.45
-42.57
-39.20
-33.38
-25.67
-17.02
-8.57
-1.29
4.35
8.47
11.64
14.49
17.34
20.05
22.15
23.08
22.60
20.91
18.58
16.34
14.71
13.90
13.81
14.19
14.81
15.55
16.41
17.36
18.24
18.74
18.55
17.48
15.72
13.77
12.25
11.52
11.48
11.57
11.08
9.54
6.93
3.69
0.44
-2.31
-4.32
-5.58
-6.18
-6.26
-6.02
-5.81
-6.16
-7.60
-10.52
-14.92
-20.36
-26.04
-31.06
-34.56
-35.95
-34.97
-31.67
-26.49
-20.09
-13.25
-6.69
-0.97
3.64
7.15
9.72
11.66
13.19
14.51
15.65
16.58
17.23
17.55
17.56
17.34
17.04
16.82
16.84
17.19
17.87
18.76
19.62
20.10
19.94
19.03
17.46
15.53
13.59
11.89
10.52
9.45
8.56
7.80
7.13
6.48
5.72
4.71
3.35
1.70
-0.07
-1.74
-3.20
-4.52
-5.90
-7.57
-9.73
-12.49
-15.87
-19.80
-23.97
-27.85
-30.65
-31.54
-29.96
-25.89
-19.85
-12.74
-5.57
0.72
5.38
7.92
8.26
6.90
5.00
4.12
5.62
10.03
16.77
24.32
30.88
35.13
36.69
36.10
34.42
32.65
31.41
30.82
30.65
30.56
30.23
29.42
28.04
26.02
23.35
20.05
16.23
12.24
8.62
5.99
4.58
4.04
3.31
1.13
-3.28
-9.58
-16.28
-21.33
-23.20
-21.77
-18.63
-16.42
-17.57
-23.12
-32.16
-42.18
-50.07
-53.41
-51.38
-44.88
-36.08
-27.38
-20.50
-15.95
-13.12
-10.87
-8.19
-4.69
-0.69
3.17
6.27
8.30
9.31
9.51
9.16
8.57
8.08
8.06
8.78
10.16
11.67
12.50
11.96
9.93
7.02
4.38
3.16
3.90
6.23
9.04
10.93
10.89
8.66
4.83
0.50
-3.24
-5.75
-7.00
-7.50
-7.92
-8.82
-10.46
-12.76
-15.36
-17.79
-19.64
-20.69
-21.08
-21.23
-21.73
-23.07
-25.37
-28.25
-30.93
-32.55
-32.46
-30.44
-26.70
-21.67
-15.76
-9.26
-2.43
4.42
10.75
15.92
19.34
20.74
20.21
18.31
15.85
13.62
12.30
12.20
13.36
15.54
18.34
21.29
23.94
25.92
27.01
27.19
26.62
25.52
24.20
22.85
21.58
20.30
18.83
16.93
14.44
11.35
7.85
4.25
0.93
-1.79
-3.71
-4.72
-4.88
-4.40
-3.69
-3.28
-3.71
-5.32
-8.07
-11.55
-15.16
-18.37
-20.96
-23.12
-25.19
-27.45
-29.90
-32.13
-33.52
-33.44
-31.52
-27.66
-22.13
-15.47
-8.40
-1.70
3.92
8.05
10.68
12.16
13.10
14.00
15.13
16.40
17.56
18.35
18.71
18.77
18.75
18.90
19.41
20.45
22.08
24.26
26.73
29.08
30.86
31.83
32.04
31.91
31.90
32.36
33.27
34.27
34.82
34.41
32.76
29.78
25.59
20.36
14.34
7.84
1.26
-4.90
-10.16
-14.19
-16.95
-18.75
-20.19
-21.93
-24.50
-28.07
-32.35
-36.74
-40.42
-42.60
-42.65
-40.30
-35.62
-29.08
-21.47
-13.78
-6.95
-1.69
1.75
3.56
4.30
4.62
5.08
5.96
7.30
8.99
10.81
12.48
13.72
14.26
13.98
13.02
11.80
10.90
10.76
11.48
12.68
13.69
13.83
12.79
10.70
8.10
5.61
3.68
2.48
1.89
1.71
1.70
1.67
1.43
0.79
-0.45
-2.35
-4.76
-7.32
-9.60
-11.27
-12.26
-12.84
-13.50
-14.82
-17.21
-20.72
-24.90
-28.87
-31.57
-32.12
-30.21
-26.21
-21.01
-15.63
-10.80
-6.73
-3.23
-0.07
2.71
4.76
5.66
5.23
3.79
2.04
0.71
0.23
0.60
1.58
2.86
4.32
5.93
7.66
9.29
10.53
11.11
11.01
10.50
9.98
9.74
9.79
9.81
9.29
7.81
5.29
2.14
-0.87
-2.92
-3.40
-2.27
-0.08
2.21
3.62
3.39
1.34
-2.19
-6.41
-10.42
-13.53
-15.49
-16.69
-17.98
-20.33
-24.28
-29.58
-35.07
-39.03
-39.96
-37.25
-31.50
-24.30
-17.51
-12.45
-9.49
-7.97
-6.79
-4.95
-2.06
1.56
5.18
8.07
9.83
10.47
10.37
10.00
9.77
9.95
10.61
11.65
12.88
14.20
15.57
17.12
18.98
21.19
23.48
25.34
26.16
25.44
23.15
19.69
15.82
12.38
9.96
8.70
8.24
7.92
7.00
4.98
1.81
-2.12
-6.11
-9.44
-11.62
-12.54
-12.42
-11.75
-11.19
-11.42
-13.06
-16.46
-21.52
-27.56
-33.35
-37.44
-38.66
-36.51
-31.41
-24.56
-17.46
-11.36
-6.86
-3.80
-1.47
0.96
4.04
7.80
11.74
15.11
17.23
17.83
17.21
16.08
15.30
15.54
16.95
19.20
21.64
23.65
24.95
25.68
26.19
26.78
27.52
28.22
28.67
28.73
28.34
27.40
25.75
23.26
19.98
16.31
12.89
10.31
8.81
8.23
8.20
8.33
8.47
8.52
8.26
7.21
4.76
0.50
-5.46
-12.34
-19.07
-24.74
-28.96
-31.98
-34.38
-36.62
-38.69
-40.00
-39.66
-36.89
-31.51
-24.15
-16.07
-8.74
-3.21
0.27
2.26
3.78
5.74
8.52
11.77
14.77
16.84
17.74
17.81
17.67
17.91
18.76
20.01
21.19
21.88
21.88
21.24
20.15
18.82
17.33
15.72
14.01
12.26
10.62
9.20
8.10
7.30
6.74
6.31
5.83
5.06
3.70
1.56
-1.38
-4.82
-8.26
-11.11
-13.03
-14.02
-14.42
-14.70
-15.34
-16.59
-18.54
-21.10
-24.06
-27.09
-29.67
-31.19
-31.09
-29.08
-25.31
-20.42
-15.29
-10.78
-7.44
-5.33
-4.11
-3.21
-2.12
-0.61
1.32
3.51
5.82
8.31
11.15
14.52
18.34
22.21
25.50
27.61
28.27
27.71
26.60
25.77
25.82
26.85
28.52
30.16
31.11
30.95
29.52
26.90
23.26
18.95
14.82
12.34
13.51
20.16
32.94
50.47
69.25
84.50
91.74
88.29
74.22
52.13
26.09
0.29
-22.15
-39.74
-52.50
-61.49
-68.28
-74.35
-80.74
-87.77
-94.96
-101.16
-104.85
-104.63
-99.64
-90.01
-76.78
-61.55
-45.99
-31.35
-18.28
-6.86
3.13
11.94
19.73
26.50
32.09
36.15
38.23
37.87
34.85
29.45
22.61
15.67
9.87
5.85
3.38
1.56
-0.75
-4.34
-9.40
-15.57
-22.17
-28.58
-34.41
-39.59
-44.16
-48.08
-51.12
-52.97
-53.32
-52.20
-50.09
-47.86
-46.46
-46.61
-48.48
-51.67
-55.44
-59.11
-62.25
-64.53
-65.56
-64.58
-60.65
-53.10
-42.04
-28.52
-14.25
-0.93
10.48
19.95
28.06
35.31
41.55
46.03
47.97
47.22
44.60
41.68
40.08
40.60
42.90
45.76
47.69
47.78
46.06
43.39
40.92
39.45
39.02
38.99
38.43
36.68
33.73
30.20
27.01
24.84
23.74
23.16
22.25
20.36
17.34
13.69
10.31
8.08
7.44
8.09
8.98
8.71
6.11
0.89
-6.09
-13.22
-18.76
-21.76
-22.31
-21.38
-20.14
-19.24
-18.50
-17.03
-13.71
-7.66
1.30
12.30
23.47
32.34
36.79
36.05
31.27
25.16
20.69
19.45
20.90
22.76
22.62
19.56
14.84
11.07
10.55
13.72
18.84
22.98
23.68
20.29
14.16
7.78
3.35
1.72
2.20
3.10
2.77
0.43
-3.60
-8.20
-12.04
-14.15
-14.25
-12.80
-10.72
-9.19
-9.20
-11.31
-15.38
-20.62
-25.74
-29.46
-30.97
-30.14
-27.56
-24.16
-20.70
-17.60
-14.78
-11.94
-8.79
-5.28
-1.57
2.06
5.32
8.04
10.08
11.36
11.77
11.27
9.99
8.17
6.25
4.65
3.71
3.61
4.35
5.74
7.46
9.13
10.32
10.66
10.00
8.44
6.37
4.42
3.17
2.92
3.53
4.37
4.61
3.52
0.82
-3.15
-7.64
-11.78
-14.93
-16.86
-17.74
-17.98
-18.12
-18.69
-20.19
-23.02
-27.17
-32.18
-37.01
-40.34
-41.01
-38.45
-33.01
-25.80
-18.27
-11.69
-6.73
-3.28
-0.67
1.96
5.20
9.12
13.26
16.87
19.33
20.43
20.52
20.23
20.28
21.01
22.36
23.94
25.32
26.22
26.65
26.72
26.45
25.70
24.25
21.92
18.84
15.38
12.10
9.51
7.88
7.18
7.07
7.05
6.55
5.06
2.33
-1.50
-5.90
-10.00
-12.95
-14.26
-14.16
-13.50
-13.57
-15.49
-19.69
-25.64
-32.02
-37.14
-39.62
-38.83
-35.04
-29.31
-22.92
-16.97
-11.96
-7.79
-4.00
-0.17
3.77
7.47
10.35
12.02
12.52
12.37
12.34
13.05
14.63
16.72
18.74
20.17
20.84
20.96
20.89
20.94
21.18
21.48
21.59
21.32
20.51
19.13
17.27
15.04
12.71
10.54
8.73
7.29
6.03
4.59
2.71
0.39
-2.07
-4.20
-5.64
-6.28
-6.39
-6.41
-6.74
-7.64
-9.18
-11.39
-14.32
-18.04
-22.39
-26.91
-30.77
-32.95
-32.63
-29.49
-23.84
-16.56
-8.86
-1.92
3.42
6.82
8.48
9.00
9.15
9.56
10.58
12.13
13.86
15.33
16.32
16.82
17.14
17.64
18.60
20.03
21.72
23.35
24.60
25.29
25.35
24.82
23.82
22.50
21.06
19.76
18.90
18.68
19.08
19.80
20.28
19.87
18.16
15.14
11.27
7.25
3.71
0.97
-1.11
-2.99
-5.17
-7.98
-11.37
-14.98
-18.29
-20.87
-22.56
-23.57
-24.32
-25.28
-26.69
-28.41
-29.97
-30.71
-30.10
-27.91
-24.31
-19.80
-14.92
-10.16
-5.78
-1.93
1.28
3.71
5.23
5.79
5.59
5.10
4.87
5.39
6.75
8.67
10.57
11.86
12.27
11.93
11.27
10.74
10.56
10.64
10.73
10.57
10.05
9.26
8.35
7.43
6.54
5.70
4.95
4.35
3.93
3.61
3.23
2.63
1.77
0.78
-0.11
-0.73
-1.11
-1.51
-2.38
-4.14
-7.05
-11.01
-15.65
-20.44
-24.95
-29.02
-32.78
-36.48
-40.18
-43.50
-45.73
-46.04
-43.90
-39.38
-33.19
-26.35
-19.86
-14.34
-9.94
-6.49
-3.67
-1.17
1.21
3.57
5.92
8.22
10.37
12.27
13.81
15.01
15.90
16.61
17.25
17.92
18.69
19.58
20.61
21.74
22.86
23.76
24.18
23.83
22.56
20.44
17.79
15.06
12.65
10.80
9.48
8.53
7.70
6.82
5.85
4.85
3.85
2.83
1.66
0.21
-1.57
-3.58
-5.60
-7.38
-8.76
-9.74
-10.51
-11.37
-12.67
-14.71
-17.69
-21.51
-25.75
-29.69
-32.39
-33.04
-31.25
-27.22
-21.67
-15.54
-9.67
-4.53
-0.26
3.26
6.18
8.56
10.39
11.62
12.20
12.18
11.70
11.04
10.60
10.76
11.72
13.39
15.41
17.35
18.84
19.80
20.34
20.67
20.89
21.00
20.93
20.65
20.21
19.74
19.28
18.75
17.98
16.83
15.26
13.42
11.54
9.84
8.38
7.06
5.68
4.09
2.33
0.53
-1.07
-2.31
-3.21
-3.87
-4.50
-5.24
-6.20
-7.47
-9.26
-11.78
-15.20
-19.33
-23.53
-26.84
-28.29
-27.40
-24.39
-20.06
-15.40
-11.01
-7.01
-3.08
1.04
5.23
8.93
11.35
11.99
10.93
8.83
6.66
5.31
5.20
6.23
7.87
9.37
10.08
9.67
8.23
6.25
4.43
3.44
3.67
5.06
7.13
9.09
10.13
9.74
7.87
4.99
1.88
-0.70
-2.30
-2.96
-3.16
-3.59
-4.82
-7.01
-9.82
-12.53
-14.44
-15.15
-14.78
-13.86
-13.12
-13.07
-13.96
-15.81
-18.56
-22.10
-26.30
-30.82
-35.07
-38.29
-39.63
-38.21
-33.12
-23.45
-8.58
11.26
34.48
58.05
78.03
90.75
93.95
87.55
73.56
55.32
36.38
19.60
6.66
-1.98
-6.88
-9.13
-9.96
-10.25
-10.29
-9.76
-8.14
-5.14
-1.09
3.12
6.38
7.99
7.97
7.02
5.95
5.10
4.07
1.90
-2.29
-8.69
-16.48
-24.10
-29.86
-32.65
-32.34
-29.74
-26.22
-23.19
-21.69
-22.16
-24.44
-27.82
-31.30
-33.79
-34.54
-33.40
-31.08
-28.97
-28.72
-31.42
-37.09
-44.25
-50.45
-53.09
-50.66
-43.34
-32.99
-22.33
-13.56
-7.49
-3.24
1.08
7.22
15.82
25.91
35.34
41.74
43.46
40.25
33.27
24.71
17.03
12.22
11.21
13.71
18.35
23.29
26.88
28.19
27.22
24.58
21.17
17.74
14.74
12.37
10.70
9.68
9.03
8.13
6.08
2.10
-3.88
-11.03
-17.72
-22.29
-23.83
-22.79
-20.75
-19.74
-21.26
-25.65
-32.11
-39.34
-46.23
-52.33
-57.84
-63.19
-68.64
-74.05
-78.95
-82.79
-85.09
-85.58
-84.21
-81.10
-76.50
-70.72
-64.06
-56.72
-48.76
-40.10
-30.63
-20.36
-9.47
1.66
12.50
22.56
31.47
39.06
45.39
50.57
54.70
57.79
59.78
60.66
60.53
59.64
58.34
56.91
55.47
53.97
52.23
50.13
47.68
45.05
42.50
40.09
37.77
35.30
32.43
29.12
25.58
22.24
19.55
17.77
16.87
16.52
16.30
15.84
14.88
13.33
11.15
8.40
5.29
2.19
-0.30
-1.51
-0.91
1.61
5.69
10.59
15.46
19.60
22.71
24.72
25.73
25.73
24.69
22.58
19.58
16.12
12.77
10.06
8.34
7.73
8.25
9.86
12.51
15.96
19.73
23.14
25.64
27.07
27.75
28.21
28.76
29.11
28.45
25.92
21.19
14.64
7.27
0.02
-6.64
-12.70
-18.16
-22.71
-25.89
-27.66
-28.85
-31.04
-35.60
-42.53
-49.96
-54.89
-54.88
-49.63
-41.44
-34.04
-30.50
-31.58
-35.28
-38.14
-37.15
-31.39
-22.32
-12.88
-5.91
-3.01
-3.94
-7.12
-10.43
-12.19
-11.61
-8.88
-4.93
-0.94
2.14
3.83
4.29
4.06
3.87
4.32
5.59
7.43
9.30
10.61
10.96
10.42
9.46
8.81
9.23
11.16
14.54
18.81
23.00
26.03
27.04
25.57
21.70
15.90
8.87
1.29
-6.31
-13.54
-20.07
-25.57
-29.66
-31.94
-32.18
-30.40
-26.92
-22.20
-16.73
-10.86
-4.74
1.58
7.97
14.15
19.70
24.14
27.10
28.50
28.56
27.74
26.56
25.49
24.76
24.40
24.36
24.52
24.83
25.25
25.63
25.72
25.16
23.65
21.14
17.97
14.76
12.16
10.47
9.42
8.23
5.99
2.16
-3.11
-8.96
-14.26
-18.18
-20.63
-22.28
-24.23
-27.39
-32.11
-38.00
-44.14
-49.51
-53.28
-55.05
-54.73
-52.42
-48.32
-42.73
-36.08
-29.01
-22.22
-16.31
-11.54
-7.73
-4.39
-1.03
2.49
5.87
8.49
9.81
9.80
9.07
8.57
9.10
10.92
13.59
16.27
18.21
19.06
18.96
18.34
17.62
17.02
16.59
16.30
16.14
16.21
16.69
17.68
19.10
20.66
21.88
22.23
21.41
19.47
16.86
14.19
11.81
9.60
6.90
2.87
-3.07
-10.85
-19.69
-28.28
-35.28
-39.59
-40.64
-38.32
-32.88
-24.82
-14.74
-3.41
8.28
19.40
29.06
36.59
41.67
44.38
45.05
44.13
41.97
38.89
35.20
31.36
27.96
25.54
24.37
24.32
24.92
25.63
26.10
26.29
26.40
26.66
27.07
27.41
27.26
26.14
23.69
19.73
14.36
7.91
1.00
-5.57
-11.05
-14.92
-17.14
-18.15
-18.73
-19.65
-21.41
-24.08
-27.41
-31.01
-34.63
-38.08
-41.23
-43.74
-45.04
-44.54
-41.88
-37.20
-31.23
-25.01
-19.48
-15.15
-12.00
-9.55
-7.27
-4.82
-2.16
0.50
2.91
4.89
6.39
7.42
7.99
8.11
7.88
7.58
7.66
8.53
10.34
12.82
15.25
16.83
16.96
15.58
13.16
10.47
8.25
6.92
6.49
6.62
6.79
6.49
5.42
3.54
1.05
-1.73
-4.58
-7.50
-10.71
-14.48
-18.97
-24.10
-29.59
-35.05
-40.11
-44.41
-47.58
-49.11
-48.48
-45.32
-39.63
-31.91
-23.05
-14.09
-5.96
0.75
5.87
9.56
12.11
13.83
14.87
15.21
14.81
13.71
12.15
10.54
9.32
8.80
9.08
10.07
11.57
13.41
15.43
17.43
19.13
20.18
20.27
19.32
17.52
15.35
13.33
11.86
10.97
10.28
9.15
7.03
3.71
-0.43
-4.46
-7.33
-8.24
-7.19
-4.98
-3.01
-2.69
-4.78
-9.13
-14.67
-20.01
-24.02
-26.23
-26.93
-26.77
-26.22
-25.33
-23.64
-20.53
-15.74
-9.60
-2.99
3.03
7.73
10.95
13.08
14.70
16.15
17.36
17.94
17.56
16.25
14.54
13.20
12.94
14.01
16.11
18.48
20.36
21.23
21.07
20.26
19.37
18.86
18.83
19.01
18.89
18.07
16.45
14.31
12.17
10.51
9.56
9.23
9.18
9.09
8.68
7.87
6.75
5.51
4.34
3.37
2.62
1.94
1.05
-0.38
-2.57
-5.51
-8.85
-12.00
-14.21
-14.88
-13.68
-10.66
-6.25
-1.02
4.40
9.63
14.46
18.86
22.80
26.11
28.48
29.52
28.95
26.78
23.39
19.36
15.40
12.06
9.60
8.00
6.96
6.08
4.95
3.21
0.52
-3.39
-8.65
-15.15
-22.44
-29.82
-36.59
-42.20
-46.50
-49.65
-51.92
-53.46
-54.24
-54.13
-53.14
-51.57
-49.93
-48.70
-48.02
-47.58
-46.69
-44.62
-40.78
-35.04
-27.66
-19.19
-10.42
-2.17
4.88
10.44
14.85
19.02
24.20
31.35
40.72
51.46
61.97
70.40
75.51
77.07
75.87
73.21
70.21
67.39
64.57
61.25
56.94
51.43
44.78
37.14
28.64
19.44
9.89
0.63
-7.48
-13.74
-17.83
-20.02
-20.99
-21.49
-22.05
-22.78
-23.52
-23.99
-24.01
-23.62
-23.03
-22.53
-22.43
-22.95
-24.16
-26.06
-28.61
-31.72
-35.24
-38.94
-42.46
-45.38
-47.30
-47.99
-47.51
-46.21
-44.60
-43.15
-42.04
-41.09
-39.78
-37.53
-33.90
-28.81
-22.57
-15.85
-9.39
-3.85
0.44
3.51
5.68
7.40
9.00
10.53
11.75
12.33
12.19
11.63
11.37
12.21
14.56
18.05
21.65
24.11
24.61
23.26
21.04
19.28
19.01
20.42
22.79
24.91
25.73
24.81
22.46
19.44
16.56
14.28
12.64
11.42
10.34
9.26
8.18
7.21
6.40
5.71
5.09
4.43
3.72
2.95
2.08
0.99
-0.55
-2.86
-6.12
-10.19
-14.42
-17.59
-18.29
-15.33
-8.46
1.44
12.44
22.28
29.21
32.63
33.09
31.89
30.40
29.60
29.93
31.39
33.61
35.85
36.98
35.76
31.35
23.91
14.88
6.60
1.36
0.28
2.73
6.63
9.46
9.50
6.62
2.11
-2.14
-4.71
-5.29
-4.72
-4.30
-5.07
-7.28
-10.47
-13.86
-16.94
-19.69
-22.49
-25.65
-29.20
-32.80
-36.01
-38.73
-41.21
-43.91
-47.10
-50.50
-53.28
-54.40
-53.07
-49.10
-42.93
-35.38
-27.30
-19.31
-11.83
-5.20
0.28
4.32
6.81
7.88
7.87
7.19
6.18
5.02
3.84
2.98
2.92
4.28
7.41
12.09
17.42
22.03
24.63
24.56
22.04
18.11
14.12
11.13
9.56
9.06
8.86
8.13
6.35
3.42
-0.37
-4.46
-8.28
-11.38
-13.50
-14.63
-14.95
-14.76
-14.43
-14.32
-14.74
-15.96
-18.07
-20.92
-24.05
-26.67
-27.89
-27.01
-23.85
-18.81
-12.69
-6.33
-0.34
5.01
9.56
13.06
15.17
15.59
14.44
12.32
10.23
9.02
9.00
9.72
10.29
9.93
8.45
6.35
4.53
3.79
4.39
5.99
7.83
9.22
9.74
9.39
8.48
7.38
6.29
5.19
3.93
2.31
0.30
-1.91
-3.96
-5.50
-6.35
-6.67
-6.88
-7.55
-9.14
-11.74
-15.16
-19.00
-22.88
-26.63
-30.24
-33.78
-37.14
-39.95
-41.67
-41.79
-40.13
-36.90
-32.64
-28.05
-23.78
-20.29
-17.85
-16.57
-16.47
-17.47
-19.41
-22.06
-25.11
-28.32
-31.45
-34.42
-37.21
-39.93
-42.67
-45.52
-48.38
-50.85
-52.14
-51.15
-46.75
-38.19
-25.36
-8.98
9.66
29.01
47.63
64.38
78.35
88.82
95.16
97.04
94.60
88.53
80.00
70.42
61.11
53.08
46.96
42.90
40.58
39.32
38.19
36.26
32.94
28.13
22.29
16.27
10.99
7.18
5.17
4.86
5.86
7.58
9.50
11.25
12.68
13.85
14.82
15.62
16.09
16.02
15.23
13.78
12.04
10.52
9.80
10.25
11.90
14.44
17.32
19.90
21.64
22.27
21.76
20.37
18.40
16.16
13.82
11.44
9.00
6.50
3.94
1.34
-1.35
-4.30
-7.65
-11.36
-15.08
-18.12
-19.79
-19.67
-17.94
-15.36
-13.02
-11.81
-12.07
-13.45
-15.11
-16.02
-15.45
-13.13
-9.36
-4.87
-0.50
2.94
5.00
5.62
5.09
3.84
2.20
0.28
-2.00
-4.69
-7.66
-10.55
-12.85
-14.10
-14.11
-12.97
-10.98
-8.56
-6.13
-3.95
-2.22
-1.03
-0.49
-0.66
-1.65
-3.44
-5.92
-8.71
-11.28
-13.08
-13.70
-13.11
-11.64
-9.86
-8.32
-7.29
-6.74
-6.47
-6.25
-6.04
-6.04
-6.59
-8.03
-10.60
-14.32
-18.93
-23.94
-28.57
-31.96
-33.28
-32.02
-28.11
-22.02
-14.63
-7.02
-0.11
5.53
9.76
12.84
15.17
17.00
18.37
19.12
19.06
18.27
17.06
15.88
15.17
15.11
15.65
16.60
17.80
19.13
20.51
21.79
22.79
23.33
23.34
22.86
21.96
20.60
18.64
15.90
12.33
8.06
3.45
-1.05
-4.98
-7.93
-9.60
-9.75
-8.28
-5.40
-1.61
2.24
5.14
6.19
4.83
0.94
-5.21
-13.08
-21.99
-31.31
-40.37
-48.44
-54.83
-58.90
-60.38
-59.48
-56.81
-53.15
-49.07
-44.69
-39.69
-33.52
-25.80
-16.56
-6.35
3.95
13.32
21.04
26.72
30.47
32.66
33.70
33.90
33.21
31.44
28.38
24.05
18.84
13.38
8.35
4.30
1.52
0.19
0.36
2.01
4.94
8.70
12.74
16.51
19.80
22.68
25.42
28.21
30.93
33.21
34.47
34.24
32.32
28.73
23.77
17.73
10.93
3.57
-4.21
-12.28
-20.42
-28.24
-35.10
-40.18
-42.66
-42.05
-38.40
-32.37
-25.01
-17.37
-10.16
-3.55
2.70
8.88
15.06
20.83
25.42
28.06
28.32
26.42
23.26
20.05
17.94
17.69
19.54
23.35
28.79
35.48
43.01
50.74
57.74
62.82
64.89
63.36
58.37
50.79
41.90
32.87
24.41
16.74
9.72
3.14
-3.01
-8.56
-13.27
-17.11
-20.27
-23.17
-26.26
-29.81
-33.78
-37.87
-41.61
-44.49
-46.18
-46.60
-45.86
-44.19
-41.76
-38.61
-34.66
-29.83
-24.26
-18.35
-12.68
-7.85
-4.17
-1.60
0.13
1.36
2.15
2.40
1.86
0.47
-1.53
-3.63
-5.21
-5.86
-5.47
-4.28
-2.65
-0.91
0.79
2.46
4.17
5.95
7.76
9.43
10.77
11.59
11.75
11.23
10.10
8.63
7.08
5.63
4.31
2.95
1.31
-0.68
-2.89
-4.97
-6.52
-7.34
-7.45
-7.19
-6.97
-7.11
-7.74
-8.70
-9.65
-10.06
-9.42
-7.25
-3.34
2.12
8.53
14.93
20.36
24.23
26.67
28.44
30.69
34.37
39.72
46.10
52.17
56.43
57.81
55.97
51.31
44.73
37.16
29.41
21.98
15.22
9.35
4.51
0.65
-2.50
-5.33
-8.24
-11.45
-14.96
-18.60
-22.17
-25.60
-28.89
-32.08
-35.06
-37.62
-39.54
-40.69
-41.15
-41.14
-40.88
-40.47
-39.91
-39.16
-38.32
-37.66
-37.48
-38.04
-39.34
-41.22
-43.41
-45.69
-47.87
-49.77
-51.08
-51.41
-50.34
-47.59
-43.04
-36.82
-29.13
-20.33
-10.82
-1.13
8.17
16.46
23.28
28.38
31.74
33.61
34.41
34.70
35.03
35.73
36.85
38.08
38.91
38.95
38.14
36.87
35.80
35.57
36.49
38.37
40.42
41.47
40.26
35.93
28.39
18.52
7.98
-1.35
-8.03
-11.52
-12.25
-11.25
-9.58
-8.01
-6.80
-5.89
-5.17
-4.60
-4.20
-3.98
-3.89
-3.85
-3.96
-4.58
-6.31
-9.78
-15.28
-22.44
-30.14
-36.80
-40.84
-41.28
-38.05
-31.92
-24.16
-16.05
-8.40
-1.40
5.39
12.68
21.11
30.85
41.45
51.85
60.74
67.00
70.04
70.01
67.57
63.60
58.89
54.00
49.24
44.77
40.69
36.96
33.45
29.90
26.00
21.45
16.13
10.08
3.54
-3.04
-9.21
-14.59
-19.00
-22.45
-25.18
-27.47
-29.52
-31.47
-33.30
-35.00
-36.57
-38.07
-39.56
-41.08
-42.58
-43.98
-45.17
-46.06
-46.58
-46.59
-45.89
-44.17
-41.12
-36.44
-30.11
-22.36
-13.84
-5.44
1.96
7.72
11.61
13.80
14.74
14.92
14.69
14.29
13.87
13.64
13.80
14.50
15.66
16.93
17.78
17.71
16.52
14.40
11.88
9.64
8.17
7.60
7.65
7.80
7.53
6.58
5.02
3.23
1.69
0.72
0.37
0.36
0.26
-0.31
-1.53
-3.31
-5.43
-7.64
-9.83
-12.02
-14.31
-16.82
-19.62
-22.74
-26.18
-29.80
-33.28
-36.00
-37.20
-36.24
-32.94
-27.75
-21.58
-15.44
-10.06
-5.62
-1.84
1.63
5.04
8.29
11.07
13.11
14.22
14.47
14.08
13.35
12.56
11.97
11.77
12.00
12.63
13.50
14.43
15.34
16.24
17.20
18.25
19.26
19.92
19.87
18.86
16.87
14.23
11.42
8.91
6.96
5.44
4.00
2.23
-0.07
-2.79
-5.52
-7.88
-9.65
-10.98
-12.30
-14.06
-16.60
-19.89
-23.67
-27.43
-30.65
-32.82
-33.55
-32.58
-29.84
-25.51
-19.94
-13.71
-7.45
-1.70
3.20
7.19
10.37
12.94
15.00
16.49
17.25
17.20
16.52
15.66
15.19
15.57
16.87
18.73
20.56
21.89
22.59
22.94
23.32
23.99
24.79
25.23
24.77
23.12
20.39
17.05
13.57
10.17
6.79
3.18
-0.78
-4.92
-8.71
-11.48
-12.69
-12.19
-10.32
-7.81
-5.71
-5.12
-7.05
-12.16
-20.55
-31.57
-43.87
-55.66
-65.20
-71.31
-73.59
-72.54
-69.12
-64.37
-58.98
-53.16
-46.70
-39.20
-30.20
-19.34
-6.48
8.11
23.65
38.85
52.14
62.12
68.06
70.15
69.47
67.59
66.03
66.01
68.19
72.77
79.43
87.36
95.26
101.51
104.57
103.36
97.64
87.96
75.51
61.76
48.02
35.30
24.11
14.61
6.69
0.15
-5.10
-9.11
-11.87
-13.58
-14.75
-16.00
-17.98
-20.91
-24.61
-28.53
-32.13
-35.09
-37.26
-38.45
-38.26
-36.08
-31.43
-24.35
-15.68
-6.82
0.65
5.62
7.81
7.65
6.01
3.71
1.14
-1.79
-5.52
-10.48
-16.72
-23.84
-31.01
-37.26
-41.79
-44.15
-44.42
-43.12
-40.98
-38.71
-36.69
-34.86
-32.91
-30.48
-27.57
-24.63
-22.52
-22.06
-23.64
-26.91
-30.87
-34.20
-35.83
-35.33
-32.97
-29.55
-26.13
-23.78
-23.37
-25.39
-29.74
-35.65
-41.75
-46.42
-48.20
-46.26
-40.68
-32.30
-22.58
-13.12
-5.22
0.40
3.81
5.76
7.33
9.41
12.31
15.63
18.57
20.42
21.06
21.07
21.36
22.67
25.14
28.31
31.33
33.51
34.60
34.77
34.39
33.77
33.00
31.90
30.24
27.84
24.76
21.28
17.76
14.47
11.45
8.46
5.08
0.95
-3.98
-9.44
-14.88
-19.64
-23.39
-26.21
-28.60
-31.30
-34.86
-39.40
-44.44
-49.09
-52.27
-53.16
-51.40
-47.20
-41.25
-34.44
-27.60
-21.25
-15.52
-10.26
-5.14
0.01
5.15
10.00
14.25
17.70
20.41
22.69
24.87
27.10
29.25
30.93
31.71
31.36
29.93
27.68
24.98
22.13
19.33
16.59
13.94
11.36
8.93
6.75
4.90
3.37
2.01
0.59
-1.13
-3.24
-5.70
-8.25
-10.58
-12.42
-13.73
-14.62
-15.36
-16.28
-17.63
-19.53
-21.93
-24.63
-27.15
-28.90
-29.25
-27.78
-24.48
-19.86
-14.71
-9.82
-5.61
-2.00
1.36
4.81
8.30
11.39
13.55
14.50
14.47
14.14
14.30
15.51
17.86
20.98
24.32
27.37
29.84
31.66
32.93
33.81
34.48
35.09
35.78
36.68
37.82
39.14
40.43
41.34
41.39
40.07
37.02
32.22
26.01
19.10
12.31
6.38
1.71
-1.71
-4.19
-6.18
-8.17
-10.50
-13.38
-16.81
-20.55
-24.06
-26.64
-27.59
-26.50
-23.44
-18.94
-13.79
-8.80
-4.49
-1.09
1.46
3.34
4.75
5.83
6.73
7.57
8.44
9.36
10.27
10.99
11.35
11.21
10.59
9.65
8.71
8.04
7.79
7.96
8.34
8.66
8.78
8.77
8.81
9.17
9.95
11.01
12.00
12.54
12.34
11.34
9.73
7.71
5.45
2.91
-0.07
-3.67
-8.04
-13.26
-19.26
-25.81
-32.49
-38.61
-43.27
-45.60
-45.01
-41.56
-35.93
-29.35
-23.19
-18.50
-15.66
-14.31
-13.59
-12.52
-10.45
-7.31
-3.67
-0.33
1.95
2.91
2.80
2.25
1.94
2.21
2.99
3.90
4.50
4.57
4.22
3.65
2.99
2.16
0.89
-0.98
-3.36
-5.77
-7.60
-8.37
-7.98
-6.71
-5.11
-3.64
-2.53
-1.70
-0.87
0.25
1.88
4.07
6.72
9.51
11.97
13.44
13.27
10.96
6.44
0.21
-6.71
-12.89
-16.97
-18.04
-15.95
-11.32
-5.33
0.80
6.18
10.45
13.75
16.53
19.19
21.91
24.62
26.97
28.56
29.06
28.42
26.88
24.93
23.12
21.83
21.11
20.66
20.07
19.02
17.39
15.32
13.03
10.68
8.35
5.98
3.55
1.13
-1.13
-3.05
-4.57
-5.71
-6.67
-7.67
-8.90
-10.41
-12.14
-13.89
-15.47
-16.71
-17.62
-18.37
-19.21
-20.36
-21.95
-23.96
-26.28
-28.78
-31.32
-33.80
-36.01
-37.58
-37.93
-36.40
-32.49
-26.16
-17.95
-8.91
-0.23
7.14
12.79
16.94
20.14
22.97
25.74
28.40
30.72
32.47
33.61
34.28
34.69
34.97
35.18
35.38
35.66
36.14
36.90
37.86
38.77
39.30
39.16
38.28
36.76
34.88
32.85
30.82
28.86
26.95
25.04
23.05
20.88
18.40
15.49
12.11
8.31
4.21
0.00
-4.13
-8.01
-11.52
-14.64
-17.41
-20.01
-22.67
-25.59
-28.92
-32.61
-36.47
-40.15
-43.22
-45.22
-45.77
-44.60
-41.63
-37.04
-31.22
-24.71
-18.10
-11.89
-6.34
-1.51
2.70
6.41
9.64
12.34
14.40
15.87
16.95
18.06
19.57
21.53
23.63
25.21
25.60
24.44
21.83
18.33
14.71
11.60
9.29
7.70
6.49
5.30
3.90
2.20
0.33
-1.57
-3.35
-4.91
-6.14
-6.96
-7.32
-7.28
-6.99
-6.76
-6.94
-7.84
-9.65
-12.37
-15.77
-19.56
-23.33
-26.85
-30.03
-33.01
-36.02
-39.13
-42.11
-44.38
-45.24
-44.21
-41.30
-37.05
-32.25
-27.54
-23.20
-19.13
-15.15
-11.20
-7.51
-4.45
-2.30
-1.16
-0.87
-1.13
-1.56
-1.84
-1.67
-0.83
0.68
2.67
4.72
6.40
7.46
7.96
8.21
8.66
9.56
10.86
12.16
12.91
12.69
11.41
9.37
7.16
5.37
4.43
4.34
4.80
5.33
5.51
5.15
4.29
3.15
2.00
1.05
0.28
-0.48
-1.58
-3.39
-6.13
-9.80
-14.09
-18.51
-22.50
-25.59
-27.41
-27.73
-26.44
-23.56
-19.32
-14.18
-8.77
-3.74
0.41
3.54
5.78
7.34
8.43
9.08
9.32
9.26
9.15
9.33
10.04
11.23
12.61
13.83
14.69
15.27
15.88
16.84
18.28
20.04
21.80
23.21
24.10
24.44
24.42
24.21
23.91
23.55
23.00
22.16
20.93
19.35
17.58
15.83
14.23
12.75
11.18
9.30
7.04
4.51
1.93
-0.49
-2.77
-5.14
-7.93
-11.38
-15.54
-20.24
-25.15
-29.90
-34.07
-37.17
-38.62
-37.82
-34.35
-28.26
-20.14
-11.17
-2.73
4.02
8.44
10.51
10.68
9.61
7.81
5.55
2.94
-0.05
-3.37
-6.84
-10.13
-12.83
-14.51
-14.93
-14.10
-12.16
-9.40
-5.98
-1.94
2.77
8.14
13.96
19.79
25.09
29.43
32.60
34.69
35.95
36.79
37.52
38.29
39.03
39.54
39.64
39.27
38.69
38.30
38.44
39.13
40.04
40.60
40.31
38.93
36.52
33.30
29.45
25.07
20.33
15.63
11.56
8.75
7.43
7.18
6.99
5.54
1.80
-4.57
-13.05
-22.49
-31.60
-39.39
-45.38
-49.64
-52.53
-54.43
-55.64
-56.22
-56.16
-55.36
-53.81
-51.59
-48.90
-46.04
-43.24
-40.63
-38.18
-35.73
-33.12
-30.36
-27.61
-25.13
-23.08
-21.43
-19.96
-18.32
-16.30
-13.86
-11.27
-8.92
-7.20
-6.34
-6.31
-6.82
-7.43
-7.63
-7.10
-5.76
-3.87
-2.04
-1.00
-1.42
-3.66
-7.57
-12.51
-17.35
-20.89
-22.15
-20.68
-16.66
-10.72
-3.75
3.42
10.10
15.80
20.14
22.88
23.97
23.62
22.32
20.68
19.26
18.35
17.95
17.86
17.90
17.94
17.99
18.08
18.27
18.57
19.03
19.72
20.64
21.76
22.90
23.84
24.32
24.09
23.04
21.18
18.70
16.01
13.57
11.77
10.63
9.82
8.74
6.92
4.35
1.58
-0.56
-1.43
-1.00
0.02
0.60
-0.08
-2.16
-5.19
-8.38
-11.18
-13.53
-15.77
-18.23
-20.86
-23.03
-23.77
-22.17
-17.90
-11.41
-3.95
2.87
7.53
9.16
7.82
4.44
0.53
-2.47
-3.74
-3.38
-2.27
-1.56
-2.01
-3.52
-5.16
-5.68
-4.20
-0.68
4.04
8.67
12.04
13.59
13.49
12.46
11.29
10.55
10.33
10.38
10.31
9.89
9.26
8.95
9.67
12.11
16.57
22.85
30.24
37.78
44.54
49.89
53.55
55.59
56.20
55.57
53.73
50.51
45.66
39.00
30.59
20.75
10.04
-0.84
-11.22
-20.46
-28.07
-33.66
-37.14
-38.73
-39.04
-38.97
-39.37
-40.79
-43.24
-46.28
-49.34
-51.97
-54.02
-55.43
-55.98
-55.09
-51.92
-45.79
-36.74
-25.79
-14.74
-5.62
0.10
2.05
0.91
-1.98
-5.33
-8.43
-11.17
-13.82
-16.61
-19.47
-22.00
-23.74
-24.32
-23.71
-22.13
-19.99
-17.77
-15.97
-15.05
-15.29
-16.74
-19.07
-21.63
-23.64
-24.48
-23.94
-22.29
-20.21
-18.46
-17.68
-18.08
-19.40
-21.00
-21.97
-21.47
-18.82
-13.75
-6.48
2.29
11.55
20.26
27.66
33.58
38.39
42.89
47.86
53.64
60.00
66.16
71.17
74.24
75.05
73.79
71.05
67.55
63.87
60.37
57.07
53.79
50.19
45.91
40.64
34.28
27.02
19.33
11.87
5.24
-0.28
-4.80
-8.72
-12.56
-16.64
-21.13
-26.09
-31.56
-37.62
-44.15
-50.71
-56.59
-61.04
-63.77
-65.14
-65.97
-67.09
-68.89
-71.10
-73.05
-74.15
-74.21
-73.39
-71.84
-69.41
-65.57
-59.76
-51.81
-42.15
-31.73
-21.53
-12.16
-3.73
4.06
11.48
18.53
24.93
30.28
34.42
37.56
40.27
43.15
46.54
50.23
53.61
55.96
56.89
56.52
55.47
54.46
53.96
53.96
54.11
53.82
52.60
50.08
46.18
41.09
35.29
29.46
24.30
20.25
17.27
14.83
12.28
9.13
5.34
1.30
-2.51
-5.78
-8.56
-11.24
-14.22
-17.77
-21.87
-26.32
-30.80
-35.01
-38.61
-41.33
-42.92
-43.19
-42.07
-39.51
-35.54
-30.13
-23.36
-15.50
-7.12
0.77
7.04
10.74
11.54
10.00
7.49
5.83
6.69
11.13
19.10
29.32
39.47
46.96
49.93
48.13
43.16
37.80
34.75
35.28
38.66
42.55
44.34
42.45
37.06
29.84
22.98
18.10
15.65
14.90
14.56
13.38
10.61
6.09
0.19
-6.36
-12.84
-18.58
-23.27
-26.89
-29.73
-32.26
-34.90
-37.87
-41.16
-44.55
-47.72
-50.40
-52.33
-53.28
-52.95
-51.04
-47.34
-41.94
-35.39
-28.58
-22.54
-18.02
-15.22
-13.74
-12.81
-11.72
-10.11
-8.08
-5.94
-3.95
-2.07
-0.05
2.32
5.03
7.78
10.17
11.90
12.96
13.55
13.96
14.34
14.66
14.76
14.43
13.65
12.57
11.53
10.81
10.57
10.70
10.84
10.59
9.53
7.52
4.62
1.16
-2.42
-5.70
-8.37
-10.36
-11.85
-13.25
-15.07
-17.78
-21.58
-26.22
-31.09
-35.36
-38.20
-38.98
-37.45
-33.75
-28.35
-21.87
-15.00
-8.34
-2.29
2.89
7.12
10.43
12.95
14.82
16.22
17.28
18.08
18.69
19.20
19.70
20.31
21.01
21.70
22.13
22.07
21.46
20.50
19.51
18.76
18.28
17.81
17.00
15.58
13.58
11.34
9.33
7.92
7.24
7.14
7.23
7.09
6.34
4.76
2.38
-0.60
-3.81
-6.90
-9.64
-12.06
-14.30
-16.63
-19.21
-22.11
-25.23
-28.40
-31.36
-33.77
-35.20
-35.12
-33.11
-29.00
-23.03
-15.82
-8.18
-0.86
5.66
11.16
15.65
19.14
21.61
23.04
23.51
23.29
22.77
22.30
22.07
22.00
21.90
21.59
21.09
20.62
20.52
21.00
22.10
23.56
24.97
25.90
26.04
25.24
23.53
21.13
18.34
15.53
13.01
10.93
9.23
7.58
5.67
3.26
0.40
-2.57
-5.20
-7.11
-8.19
-8.67
-8.99
-9.71
-11.22
-13.65
-16.81
-20.23
-23.36
-25.68
-26.83
-26.60
-24.97
-22.03
-17.98
-13.15
-7.99
-2.97
1.54
5.31
8.34
10.73
12.53
13.64
13.86
13.08
11.52
9.71
8.37
8.10
9.06
10.96
13.17
15.03
16.15
16.45
16.11
15.44
14.67
13.97
13.39
12.89
12.33
11.51
10.24
8.45
6.24
3.85
1.46
-0.86
-3.21
-5.72
-8.37
-10.95
-13.09
-14.56
-15.43
-16.15
-17.34
-19.48
-22.64
-26.45
-30.27
-33.45
-35.55
-36.39
-36.00
-34.49
-32.06
-28.90
-25.19
-21.00
-16.31
-10.99
-5.02
1.35
7.50
12.56
15.77
16.86
16.19
14.65
13.30
12.91
13.75
15.56
17.86
20.22
22.38
24.32
26.11
27.87
29.63
31.36
32.94
34.16
34.71
34.32
32.77
30.09
26.56
22.65
18.72
14.86
10.75
5.93
0.10
-6.57
-13.44
-19.66
-24.66
-28.34
-31.15
-33.79
-36.91
-40.85
-45.68
-51.33
-57.67
-64.45
-71.12
-76.90
-80.86
-82.30
-81.06
-77.62
-72.86
-67.76
-62.94
-58.52
-54.17
-49.30
-43.38
-36.20
-27.89
-18.87
-9.72
-0.99
6.89
13.64
19.17
23.67
27.50
31.23
35.43
40.43
46.10
51.83
56.78
60.18
61.78
61.86
61.10
60.24
59.66
59.32
58.83
57.80
56.02
53.67
51.03
48.37
45.66
42.62
38.86
34.14
28.55
22.45
16.35
10.70
5.63
1.02
-3.41
-7.87
-12.43
-16.90
-20.74
-23.16
-23.41
-21.08
-16.35
-10.03
-3.15
3.44
9.45
15.04
20.57
26.08
31.26
35.58
38.69
40.66
41.86
42.61
42.85
42.14
40.00
36.38
31.76
27.03
22.89
19.65
17.04
14.46
11.35
7.56
3.39
-0.63
-4.00
-6.49
-8.36
-10.14
-12.44
-15.57
-19.39
-23.22
-26.13
-27.31
-26.44
-23.85
-20.42
-17.24
-15.09
-14.24
-14.42
-15.04
-15.56
-15.84
-16.07
-16.69
-18.08
-20.40
-23.48
-26.93
-30.21
-32.78
-34.18
-34.15
-32.65
-29.87
-26.20
-22.08
-17.90
-13.89
-10.08
-6.42
-2.86
0.54
3.56
5.84
7.07
7.11
6.14
4.70
3.47
3.08
3.81
5.54
7.83
10.16
12.15
13.65
14.65
15.22
15.32
14.81
13.54
11.44
8.72
5.74
2.98
0.78
-0.78
-1.94
-3.12
-4.73
-6.95
-9.67
-12.51
-15.08
-17.15
-18.64
-19.67
-20.40
-20.95
-21.46
-22.13
-23.21
-25.00
-27.73
-31.34
-35.49
-39.51
-42.48
-43.53
-41.98
-37.70
-31.13
-23.22
-15.16
-7.92
-2.01
2.63
6.45
10.02
13.65
17.25
20.36
22.43
23.08
22.37
20.81
19.17
18.22
18.40
19.71
21.72
23.88
25.79
27.34
28.64
29.85
31.05
32.15
33.00
33.56
33.95
34.37
35.00
35.83
36.65
37.11
36.88
35.69
33.42
30.03
25.55
20.01
13.54
6.41
-0.96
-7.99
-14.08
-18.87
-22.35
-25.02
-27.69
-31.13
-35.80
-41.64
-48.10
-54.44
-59.93
-63.96
-66.06
-65.91
-63.34
-58.46
-51.74
-43.91
-35.79
-27.98
-20.68
-13.81
-7.15
-0.66
5.36
10.44
14.08
16.12
16.77
16.61
16.32
16.47
17.32
18.80
20.64
22.54
24.30
25.82
27.06
27.97
28.44
28.37
27.70
26.54
25.06
23.43
21.78
20.11
18.36
16.44
14.35
12.15
10.00
8.04
6.36
5.00
3.93
3.11
2.43
1.72
0.81
-0.48
-2.23
-4.42
-6.98
-9.86
-13.13
-16.82
-20.80
-24.64
-27.63
-28.89
-27.82
-24.31
-18.89
-12.49
-6.17
-0.75
3.44
6.47
8.71
10.53
12.08
13.26
13.84
13.63
12.63
11.17
9.70
8.63
8.17
8.19
8.36
8.37
8.10
7.69
7.48
7.77
8.65
9.90
11.07
11.70
11.45
10.34
8.58
6.54
4.48
2.55
0.73
-1.09
-2.96
-4.89
-6.84
-8.79
-10.76
-12.76
-14.77
-16.74
-18.59
-20.24
-21.75
-23.29
-25.13
-27.52
-30.55
-34.01
-37.38
-39.82
-40.52
-38.87
-34.75
-28.60
-21.27
-13.77
-6.99
-1.42
2.81
5.89
8.09
9.67
10.78
11.49
11.83
11.84
11.69
11.54
11.55
11.78
12.13
12.42
12.49
12.32
12.06
12.01
12.45
13.43
14.76
15.94
16.44
15.86
14.17
11.72
9.15
7.07
5.84
5.49
5.67
5.97
6.18
6.42
6.99
8.15
9.77
11.24
11.55
9.66
4.87
-3.00
-13.57
-26.07
-39.41
-52.23
-62.87
-69.54
-70.64
-65.31
-53.94
-38.32
-21.33
-6.11
4.79
10.13
10.20
6.56
1.47
-2.76
-4.36
-2.39
3.08
11.01
19.66
27.00
31.26
31.38
27.29
20.01
11.35
3.55
-1.29
-1.80
2.30
10.01
19.34
27.79
33.11
33.91
30.09
22.78
13.86
5.41
-0.91
-4.22
-4.58
-2.81
-0.23
1.80
2.22
0.57
-2.96
-7.67
-12.63
-16.99
-20.22
-22.18
-23.17
-23.72
-24.46
-25.87
-28.21
-31.35
-34.86
-38.03
-40.06
-40.25
-38.19
-33.92
-27.90
-20.89
-13.67
-6.78
-0.42
5.53
11.20
16.59
21.34
24.96
27.02
27.54
26.99
26.17
25.90
26.58
28.12
30.02
31.63
32.48
32.42
31.62
30.43
29.23
28.27
27.68
27.46
27.49
27.51
27.12
25.93
23.72
20.62
17.06
13.65
10.87
8.88
7.43
6.10
4.49
2.34
-0.39
-3.69
-7.39
-11.17
-14.54
-16.89
-17.85
-17.53
-16.55
-15.79
-15.86
-16.79
-17.94
-18.42
-17.48
-14.99
-11.32
-7.13
-3.01
0.79
4.22
7.29
9.84
11.54
12.01
11.03
8.78
5.88
3.23
1.65
1.60
2.89
4.82
6.52
7.36
7.28
6.68
6.17
6.16
6.58
7.00
6.87
5.86
4.07
1.86
-0.30
-2.12
-3.62
-5.02
-6.56
-8.37
-10.36
-12.31
-13.98
-15.23
-16.09
-16.75
-17.53
-18.79
-20.86
-23.99
-28.17
-33.05
-37.97
-41.94
-43.99
-43.44
-40.15
-34.55
-27.56
-20.17
-13.22
-7.14
-1.98
2.47
6.37
9.74
12.39
14.04
14.54
13.97
12.67
11.16
9.97
9.41
9.51
9.98
10.41
10.51
10.30
10.10
10.41
11.62
13.74
16.30
18.51
19.53
18.79
16.21
12.21
7.52
2.92
-1.02
-4.02
-6.12
-7.48
-8.26
-8.50
-8.15
-7.16
-5.65
-3.96
-2.61
-2.23
-3.40
-6.56
-11.86
-19.10
-27.60
-36.25
-43.64
-48.35
-49.32
-46.14
-39.17
-29.42
-18.29
-7.25
2.40
9.75
14.30
16.02
15.29
12.85
9.69
6.93
5.60
6.39
9.44
14.28
19.93
25.17
28.96
30.70
30.36
28.40
25.60
22.67
20.21
18.43
17.21
16.20
14.95
13.10
10.60
7.70
4.84
2.45
0.71
-0.48
-1.42
-2.36
-3.40
-4.39
-5.12
-5.47
-5.59
-5.94
-7.13
-9.74
-14.13
-20.21
-27.43
-34.85
-41.23
-45.35
-46.25
-43.47
-37.22
-28.33
-17.98
-7.46
2.20
10.37
16.85
21.70
25.02
26.89
27.36
26.54
24.70
22.31
19.90
17.97
16.82
16.57
17.18
18.50
20.36
22.56
24.90
27.08
28.85
29.97
30.40
30.23
29.68
28.95
28.09
26.98
25.34
22.91
19.55
15.44
11.00
6.83
3.53
1.50
0.82
1.19
2.07
2.74
2.52
0.85
-2.56
-7.66
-14.02
-20.89
-27.26
-32.12
-34.68
-34.56
-31.96
-27.51
-22.06
-16.37
-10.88
-5.77
-1.03
3.27
6.92
9.53
10.76
10.46
8.85
6.41
3.85
1.82
0.79
0.88
1.88
3.32
4.69
5.66
6.12
6.21
6.19
6.25
6.46
6.64
6.57
5.98
4.78
2.98
0.71
-1.87
-4.60
-7.33
-9.92
-12.21
-14.10
-15.50
-16.42
-17.05
-17.67
-18.73
-20.62
-23.61
-27.69
-32.55
-37.57
-41.96
-44.96
-45.93
-44.58
-40.90
-35.25
-28.25
-20.63
-13.09
-6.18
-0.17
4.97
9.38
13.21
16.34
18.50
19.41
19.07
17.85
16.43
15.51
15.42
16.08
17.03
17.75
17.98
17.74
17.28
16.78
16.32
15.79
15.06
14.06
12.82
11.43
10.02
8.66
7.38
6.16
4.89
3.43
1.59
-0.72
-3.41
-6.21
-8.79
-10.86
-12.41
-13.73
-15.37
-17.86
-21.56
-26.35
-31.67
-36.59
-40.10
-41.38
-40.07
-36.36
-30.85
-24.38
-17.71
-11.40
-5.68
-0.62
3.85
7.78
11.14
13.87
15.90
17.26
18.03
18.48
18.87
19.44
20.30
21.39
22.58
23.74
24.73
25.48
25.92
25.99
25.63
24.83
23.60
21.99
20.06
17.94
15.78
13.72
11.92
10.37
8.95
7.42
5.58
3.35
0.86
-1.65
-3.95
-5.91
-7.59
-9.19
-11.06
-13.56
-16.99
-21.39
-26.44
-31.48
-35.58
-37.92
-37.96
-35.59
-31.12
-25.12
-18.18
-10.90
-3.72
2.97
8.87
13.84
17.84
20.98
23.44
25.42
27.19
28.97
30.96
33.14
35.18
36.47
36.36
34.47
31.09
27.28
24.69
24.97
29.01
36.48
45.67
54.10
59.36
60.01
56.04
48.85
40.58
33.32
28.43
26.14
25.63
25.38
23.89
20.11
13.81
5.49
-4.02
-13.93
-23.86
-33.75
-43.73
-53.78
-63.62
-72.70
-80.28
-85.54
-87.67
-86.03
-80.35
-70.99
-59.00
-45.93
-33.31
-22.13
-12.60
-4.35
3.02
9.51
14.62
17.80
18.91
18.66
18.45
19.73
23.37
29.22
36.25
43.01
48.27
51.39
52.40
51.71
49.89
47.43
44.70
41.87
38.90
35.50
31.22
25.65
18.69
10.68
2.27
-5.92
-13.56
-20.76
-27.88
-35.20
-42.72
-50.14
-57.01
-63.07
-68.24
-72.61
-76.27
-79.19
-81.33
-82.70
-83.42
-83.66
-83.52
-82.87
-81.41
-78.64
-74.12
-67.55
-58.98
-48.82
-37.79
-26.71
-16.27
-6.77
1.87
9.96
17.75
25.17
31.80
37.06
40.57
42.39
43.02
43.20
43.64
44.71
46.39
48.29
49.92
50.91
51.09
50.58
49.62
48.44
47.08
45.42
43.23
40.41
37.10
33.67
30.56
28.08
26.21
24.60
22.72
20.14
16.71
12.61
8.26
4.10
0.32
-3.16
-6.59
-10.17
-13.94
-17.72
-21.26
-24.35
-26.88
-28.78
-29.91
-30.00
-28.75
-25.96
-21.68
-16.28
-10.31
-4.36
1.11
5.84
9.71
12.66
14.64
15.65
15.79
15.32
14.62
14.13
14.23
15.13
16.72
18.64
20.40
21.55
21.83
21.28
20.12
18.69
17.27
16.06
15.19
14.76
14.92
15.86
17.64
20.15
22.98
25.51
27.16
27.54
26.61
24.64
22.00
18.93
15.47
11.43
6.66
1.18
-4.68
-10.37
-15.29
-19.02
-21.47
-22.92
-23.97
-25.27
-27.30
-30.08
-33.09
-35.42
-36.12
-34.63
-30.95
-25.64
-19.51
-13.25
-7.25
-1.66
3.36
7.54
10.49
11.93
11.85
10.71
9.15
7.83
7.15
7.12
7.52
8.02
8.38
8.59
8.78
9.18
9.98
11.20
12.67
14.03
14.90
14.99
14.27
12.98
11.49
10.14
9.14
8.41
7.71
6.71
5.12
2.85
-0.03
-3.27
-6.62
-9.81
-12.73
-15.44
-18.17
-21.28
-25.08
-29.72
-34.95
-40.11
-44.26
-46.44
-45.99
-42.87
-37.63
-31.29
-25.07
-19.92
-16.32
-14.16
-12.87
-11.73
-10.23
-8.25
-6.10
-4.35
-3.53
-4.01
-5.84
-8.84
-12.70
-17.17
-22.05
-27.27
-32.91
-39.18
-46.29
-54.33
-62.93
-71.16
-77.70
-81.27
-81.19
-77.68
-71.80
-65.07
-58.92
-54.34
-51.68
-50.63
-50.32
-49.62
-47.36
-42.66
-35.24
-25.54
-14.58
-3.61
6.28
14.46
20.74
25.21
28.04
29.42
29.60
29.06
28.44
28.54
30.11
33.72
39.60
47.51
56.66
65.80
73.48
78.45
80.07
78.59
74.98
70.65
66.89
64.45
63.34
63.01
62.65
61.65
59.73
57.02
53.82
50.40
46.73
42.58
37.56
31.29
23.58
14.51
4.52
-5.59
-14.66
-21.33
-24.42
-23.41
-18.97
-13.00
-8.16
-6.85
-10.12
-17.17
-25.56
-32.22
-34.76
-32.21
-25.25
-15.63
-5.37
3.77
10.50
13.86
13.16
8.19
-0.46
-11.18
-21.54
-28.99
-31.69
-29.16
-22.34
-13.04
-3.17
6.06
14.32
21.99
29.70
37.92
46.71
55.90
65.19
74.32
83.05
91.03
97.77
102.81
105.93
107.50
108.51
110.37
114.32
120.98
129.97
140.19
150.40
159.78
168.24
176.20
184.07
191.91
199.39
206.05
211.64
216.09
219.22
220.50
219.05
214.05
205.30
193.54
180.14
166.66
154.19
143.17
133.62
125.50
118.98
114.22
111.10
108.86
106.14
101.38
93.36
81.76
67.14
50.70
33.61
16.39
-1.44
-21.10
-44.01
-71.02
-101.90
-135.43
-169.85
-203.63
-236.15
-267.93
-300.42
-335.68
-376.05
-423.63
-479.57
-542.80
-609.14
-671.22
-719.97
-747.44
-749.57
-727.71
-687.93
-638.42
-586.44
-536.31
-489.29
-444.95
-402.86
-363.43
-327.66
-296.11
-268.21
-242.30
-216.49
-189.64
-161.86
-134.45
-109.19
-87.38
-69.19
-53.54
-38.49
-21.98
-2.58
20.07
45.26
71.62
97.71
122.59
146.17
169.29
193.52
220.79
252.70
289.59
329.90
370.15
405.92
433.30
450.31
457.38
456.80
451.58
444.31
436.68
429.61
423.52
418.32
413.26
406.94
397.80
384.86
368.30
349.16
328.37
305.70
279.40
247.09
207.07
159.42
106.32
51.56
-0.56
-46.50
-84.57
-115.57
-142.53
-169.56
-199.82
-233.75
-268.37
-298.51
-319.33
-328.61
-327.56
-319.54
-307.63
-292.70
-273.18
-246.63
-211.85
-170.17
-125.03
-80.46
-39.36
-2.92
28.86
56.01
77.91
93.50
102.17
104.68
103.43
101.65
102.33
107.14
116.06
127.55
139.29
148.81
154.07
153.94
148.65
140.02
131.30
126.36
128.26
137.86
153.01
169.06
180.44
182.82
174.89
158.91
139.63
122.21
109.91
102.55
96.55
86.54
67.85
38.88
2.16
-36.41
-69.74
-92.30
-102.03
-100.59
-92.05
-80.73
-69.32
-58.50
-47.86
-37.41
-28.92
-25.70
-31.09
-46.02
-67.11
-86.22
-92.51
-76.41
-33.91
30.76
105.56
174.53
223.38
244.05
236.29
205.84
160.96
109.68
59.32
17.63
-6.76
-5.90
23.81
78.33
145.66
209.46
255.10
274.83
269.46
245.88
212.47
175.04
136.20
97.19
59.14
23.94
-6.18
-30.33
-50.06
-69.50
-94.42
-129.55
-176.02
-230.77
-285.84
-329.46
-349.00
-335.78
-289.25
-219.57
-144.17
-81.11
-45.13
-43.17
-72.40
-122.36
-179.17
-229.56
-265.72
-282.44
-272.81
-234.28
-169.61
-85.34
7.58
94.57
160.40
188.59
172.33
123.59
58.22
-10.16
-70.35
-117.67
-154.57
-187.97
-232.91
-298.41
-374.26
-452.83
-532.19
-608.58
-677.03
-731.93
-768.06
-792.02
-808.68
-805.60
-779.42
-736.72
-681.87
-616.87
-542.36
-396.87
-161.96
54.80
211.13
319.47
381.25
403.50
400.00
388.42
384.85
387.59
389.21
394.01
396.24
384.03
353.73
308.69
254.83
196.19
125.66
38.54
-51.56
-131.48
-191.46
-221.69
-217.77
-183.46
-129.35
-73.20
-27.66
10.19
45.28
80.42
117.87
157.40
196.45
231.98
260.23
281.31
302.35
329.32
364.20
405.77
449.11
486.77
511.05
515.41
497.48
460.56
410.08
351.50
289.31
225.76
160.73
92.75
21.18
-51.83
-120.20
-174.72
-205.77
-206.64
-175.70
-116.40
-35.53
59.17
160.05
259.33
348.38
418.00
460.37
471.93
455.28
418.70
373.16
328.35
289.82
258.35
231.53
205.78
178.45
148.51
116.46
83.83
52.46
23.97
-0.90
-22.70
-43.00
-63.87
-86.93
-112.52
-139.52
-165.92
-189.92
-210.87
-229.85
-249.16
-271.43
-298.85
-332.75
-373.50
-420.34
-470.56
-518.79
-557.32
-578.22
-576.70
-553.85
-516.86
-476.04
-439.94
-411.50
-387.33
-360.52
-325.30
-280.39
-229.17
-177.06
-127.70
-80.80
-32.43
22.16
84.98
153.09
218.65
271.56
303.29
310.02
293.71
260.55
217.68
170.25
120.32
67.86
13.05
-41.99
-92.87
-134.46
-162.70
-176.01
-175.21
-162.73
-141.28
-112.94
-78.81
-39.10
6.18
56.32
109.16
161.03
207.44
244.34
269.14
281.32
281.95
273.03
257.10
236.73
214.16
190.50
164.75
133.32
91.24
34.82
-35.09
-110.96
-179.42
-225.31
-237.49
-214.21
-165.03
-108.21
-64.20
-48.00
-63.89
-104.77
-156.34
-203.49
-235.84
-250.04
-248.05
-233.54
-208.67
-173.38
-126.74
-69.18
-3.73
64.30
129.15
186.06
231.59
263.24
279.07
277.94
260.79
231.50
196.67
164.00
139.92
127.67
126.93
135.29
150.18
170.38
195.91
226.77
261.39
296.07
325.70
345.29
351.95
345.94
330.33
309.64
288.20
268.31
249.79
230.46
207.02
176.79
139.06
95.50
49.25
3.72
-39.21
-79.41
-118.01
-157.20
-198.95
-244.60
-294.81
-349.45
-406.25
-460.62
-504.95
-530.24
-531.14
-507.15
-462.41
-403.80
-338.63
-271.14
-203.99
-136.97
-67.94
1.94
71.25
140.74
213.13
290.09
371.19
447.97
509.62
547.65
552.94
522.07
460.68
380.99
295.76
217.07
146.55
82.44
23.11
-39.93
-115.86
-207.71
-311.52
-420.06
-522.08
-616.26
-703.41
-736.04
-682.28
-546.16
-364.83
-182.18
-53.96
30.15
83.38
114.61
127.96
128.70
111.23
74.36
24.31
-28.78
-69.87
-97.28
-112.84
-118.16
-120.33
-130.39
-152.45
-182.44
-211.59
-226.02
-224.26
-208.52
-181.29
-124.79
-35.95
75.57
190.89
276.95
337.66
378.59
403.61
419.71
428.12
425.28
410.85
388.76
365.79
351.82
348.70
355.20
369.26
387.25
402.59
410.65
409.68
400.34
386.19
366.61
340.07
305.78
263.48
212.30
153.16
89.01
24.43
-34.49
-84.31
-122.96
-149.20
-162.88
-165.43
-158.73
-145.13
-126.90
-105.67
-84.17
-65.26
-51.54
-45.17
-47.63
-59.15
-78.98
-105.14
-134.40
-163.52
-189.60
-210.42
-224.58
-231.35
-230.43
-222.74
-209.15
-190.20
-166.27
-138.23
-107.76
-77.31
-49.49
-26.52
-12.23
-8.77
-15.65
-30.27
-49.85
-72.73
-98.58
-127.87
-161.46
-205.16
-262.50
-331.84
-406.06
-475.82
-532.68
-571.01
-588.57
-586.60
-576.72
-569.02
-566.69
-565.42
-558.33
-540.73
-511.57
-472.80
-428.28
-392.70
-377.04
-383.36
-405.54
-435.99
-470.52
-508.32
-549.45
-529.27
-414.31
-217.55
9.46
216.12
377.21
489.81
561.92
604.75
628.78
631.95
612.81
575.54
530.24
487.17
452.37
427.49
411.40
401.82
388.63
364.65
329.61
289.64
252.10
221.51
199.05
183.75
173.73
162.18
144.23
119.42
91.46
64.95
42.80
26.03
14.33
6.97
0.92
-5.80
-12.87
-18.01
-18.54
-13.36
-1.53
16.57
39.71
65.27
90.64
113.71
133.08
147.67
156.43
158.50
153.21
140.43
120.70
95.12
65.27
33.11
0.78
-29.68
-56.33
-77.75
-93.00
-101.73
-104.24
-101.42
-94.63
-85.67
-76.53
-69.17
-65.33
-66.35
-72.99
-85.40
-103.19
-125.38
-150.67
-177.60
-204.59
-230.21
-253.12
-272.15
-286.24
-294.91
-297.62
-294.22
-285.02
-270.76
-252.63
-232.05
-210.39
-188.87
-168.32
-149.14
-131.35
-114.73
-98.87
-83.30
-67.40
-50.51
-31.89
-10.91
12.85
39.15
67.04
94.75
120.01
140.40
154.00
159.85
158.18
150.31
138.09
123.31
107.23
90.46
73.29
56.20
40.41
27.93
21.17
22.08
31.25
47.61
68.79
92.07
115.52
138.97
164.03
193.60
231.05
279.23
339.45
410.37
487.12
561.34
622.56
661.02
670.56
650.60
605.72
543.29
470.19
390.29
303.87
208.89
103.62
-10.78
-128.87
-241.48
-337.80
-408.54
-448.77
-459.16
-445.28
-415.09
-375.63
-331.17
-283.02
-231.26
-176.70
-121.89
-70.20
-24.17
16.15
53.31
91.21
133.34
181.70
236.68
297.28
361.47
425.81
485.28
533.59
564.72
574.98
564.61
537.90
501.59
462.59
425.89
393.99
367.62
346.85
331.87
322.80
319.03
318.79
319.44
318.30
313.65
304.97
292.73
277.65
259.92
239.00
213.81
183.52
148.08
108.60
67.17
26.17
-12.29
-47.02
-77.67
-104.57
-128.17
-148.81
-166.68
-182.08
-195.82
-209.26
-224.12
-241.98
-263.60
-288.62
-315.80
-343.47
-370.27
-395.63
-419.81
-443.78
-469.07
-497.68
-531.61
-571.86
-616.95
-662.02
-699.24
-719.90
-717.60
-690.82
-643.58
-583.83
-520.17
-458.84
-402.46
-350.53
-301.31
-253.56
-207.18
-162.57
-119.68
-77.26
-33.07
14.93
67.10
121.07
171.23
210.08
230.21
226.55
197.64
145.65
75.38
-6.60
-92.54
-173.68
-240.70
-285.08
-301.24
-288.58
-252.49
-203.31
-153.57
-114.36
-92.13
-87.20
-94.44
-105.62
-112.63
-110.08
-96.62
-74.28
-46.53
-16.26
15.33
48.14
81.61
113.49
139.87
156.36
159.93
149.85
127.48
95.22
55.67
11.62
-33.26
-73.77
-103.69
-117.78
-114.27
-96.20
-70.66
-45.94
-28.00
-18.16
-13.41
-8.69
0.03
13.79
30.80
48.01
63.21
76.12
88.23
101.83
119.25
142.44
172.86
210.87
254.42
297.94
332.46
347.63
335.09
292.05
223.03
139.09
54.55
-17.15
-66.83
-91.13
-91.69
-73.35
-41.93
-2.71
40.29
84.49
128.44
171.37
212.36
249.71
280.55
301.00
307.10
295.88
266.53
220.60
161.28
92.05
15.69
-65.43
-148.16
-227.25
-295.30
-344.18
-368.18
-366.48
-343.64
-307.68
-266.89
-226.91
-189.68
-154.79
-121.16
-89.01
-60.02
-35.84
-16.10
2.75
26.39
59.90
104.21
154.81
201.61
232.15
235.85
207.59
149.10
68.09
-24.28
-116.17
-195.34
-252.43
-282.33
-285.23
-266.45
-234.63
-198.90
-166.34
-140.70
-118.71
-95.35
-66.55
-30.90
10.07
53.61
97.33
139.75
179.72
222.12
271.49
330.32
397.64
469.22
539.55
604.27
661.11
709.65
758.56
816.93
891.41
983.62
1089.84
1203.73
1319.51
1433.58
1494.73
1463.92
1320.90
1076.92
771.23
451.89
156.37
-96.01
-301.15
-463.76
-583.94
-662.12
-700.26
-704.34
-684.68
-653.56
-621.77
-596.62
-581.64
-571.21
-557.89
-535.56
-502.33
-460.89
-416.34
-373.52
-336.09
-307.18
-286.48
-273.96
-269.61
-272.79
-281.34
-291.27
-297.83
-297.64
-290.38
-276.79
-258.84
-238.16
-215.62
-191.75
-167.46
-144.30
-124.23
-108.79
-97.68
-89.25
-81.29
-72.05
-61.05
-49.20
-38.36
-30.20
-25.61
-24.40
-25.34
-26.65
-26.71
-24.52
-19.90
-13.08
-5.24
2.65
9.98
16.46
21.79
25.83
28.23
28.46
26.03
20.71
12.76
2.81
-8.31
-19.07
-29.21
-38.56
-46.98
-54.32
-60.29
-64.51
-66.75
-67.15
-66.28
-65.35
-65.44
-67.07
-69.98
-73.10
-74.91
-74.22
-71.54
-66.96
-62.02
-58.27
-56.40
-55.90
-55.12
-52.08
-45.83
-36.91
-27.41
-20.48
-18.52
-22.26
-30.98
-42.87
-55.86
-68.01
-77.26
-81.17
-77.43
-64.79
-43.91
-17.92
8.49
31.05
47.66
59.06
67.63
74.63
77.08
70.79
49.53
10.68
-41.49
-96.05
-139.26
-160.55
-157.35
-135.97
-108.37
-86.10
-75.58
-76.52
-84.15
-93.06
-100.54
-107.25
-115.57
-126.92
-140.03
-151.65
-158.24
-158.00
-151.59
-141.50
-130.52
-119.71
-111.87
-106.44
-101.65
-96.04
-89.53
-83.60
-80.62
-82.75
-91.02
-104.83
-121.60
-138.26
-152.05
-161.27
-165.33
-164.54
-159.53
-150.87
-138.92
-123.41
-104.29
-81.85
-56.84
-30.28
-3.24
23.38
48.93
72.83
94.75
114.17
130.49
143.18
152.18
157.97
161.58
164.21
166.76
169.64
172.55
174.82
175.85
175.54
174.50
173.74
174.20
176.15
179.06
181.79
183.41
183.82
184.27
187.09
194.85
209.42
231.45
260.40
294.90
333.11
372.64
410.33
441.90
462.49
467.53
454.14
422.05
373.48
312.33
242.52
167.54
91.15
18.61
-42.66
-84.62
-101.77
-94.67
-71.39
-45.56
-31.41
-38.15
-66.40
-108.28
-151.32
-183.52
-197.51
-191.92
-169.99
-136.71
-96.30
-50.88
-0.69
54.56
114.45
176.37
235.70
286.73
324.37
345.52
349.43
337.43
311.65
274.58
228.73
176.80
122.23
68.92
20.21
-22.43
-60.26
-96.75
-135.02
-175.61
-214.89
-245.16
-257.08
-243.23
-201.44
-136.79
-61.07
11.10
65.23
90.51
82.21
42.35
-21.41
-96.85
-170.11
-228.30
-259.99
-259.96
-230.68
-181.24
-123.89
-70.01
-25.06
11.24
43.07
78.12
120.50
168.48
215.89
255.97
284.08
301.41
312.01
319.98
331.09
346.44
361.49
368.38
360.15
333.12
290.95
240.67
166.35
64.58
-55.71
-176.82
-282.72
-358.36
-411.40
-449.53
-477.34
-496.74
-504.76
-497.75
-474.71
-438.39
-393.90
-348.00
-304.12
-264.28
-229.14
-195.46
-160.54
-123.96
-87.14
-51.61
-18.27
15.34
51.62
92.16
139.24
193.37
252.47
312.34
367.64
412.81
444.63
460.21
458.38
440.90
410.96
371.93
326.65
277.46
226.47
176.56
128.23
81.17
35.18
-9.80
-53.77
-96.80
-139.01
-180.40
-220.35
-260.57
-302.38
-345.51
-388.00
-427.31
-461.65
-490.70
-515.12
-518.37
-487.94
-419.97
-322.82
-212.33
-103.36
-4.86
79.75
150.61
209.66
256.58
290.09
311.74
323.96
329.47
330.87
330.03
327.99
325.28
319.83
309.21
291.52
269.30
245.34
222.36
202.22
185.79
173.21
162.77
152.57
141.46
129.30
116.37
103.34
90.75
78.90
68.05
57.74
47.59
37.62
28.30
20.01
13.16
7.93
4.23
1.79
0.04
-1.58
-3.43
-5.65
-8.33
-11.41
-14.71
-18.05
-21.16
-23.84
-25.94
-27.39
-28.29
-28.92
-29.58
-30.42
-31.46
-32.60
-33.64
-34.52
-35.34
-36.45
-38.34
-41.50
-46.13
-52.12
-59.09
-66.58
-74.41
-82.83
-92.57
-104.52
-119.34
-137.07
-156.91
-177.46
-197.19
-215.07
-231.06
-246.08
-261.66
-279.23
-299.41
-321.70
-344.91
-367.55
-388.70
-408.37
-427.44
-447.45
-470.31
-498.17
-532.87
-574.96
-622.35
-669.58
-708.40
-730.07
-728.50
-702.72
-657.39
-600.76
-541.52
-485.70
-435.67
-390.94
-350.05
-312.16
-277.37
-245.99
-217.56
-190.56
-162.95
-133.21
-101.18
-67.97
-35.60
-5.91
20.30
43.50
65.02
86.42
108.59
131.38
153.75
174.58
193.48
211.14
228.89
247.68
267.23
285.98
301.76
313.05
319.94
324.21
328.61
336.02
348.81
368.52
395.38
427.62
460.61
486.91
497.69
485.29
445.88
380.90
296.76
202.88
109.52
26.08
-39.98
-83.50
-102.07
-96.14
-68.86
-25.25
28.78
87.07
143.29
190.92
223.75
237.49
231.39
208.78
175.97
139.57
104.05
70.73
38.88
7.76
-21.57
-46.02
-61.66
-65.36
-56.07
-34.93
-4.86
29.88
64.04
91.66
106.94
105.75
87.59
56.48
20.46
-10.79
-29.20
-30.66
-16.07
9.85
40.71
70.87
96.71
116.92
131.65
141.47
146.76
147.63
144.24
136.87
126.04
112.30
96.31
78.89
61.14
44.19
28.78
15.32
4.12
-4.05
-7.85
-5.97
1.53
12.04
20.39
20.41
7.60
-18.84
-55.74
-97.84
-140.62
-182.36
-223.86
-266.23
-308.54
-346.59
-374.26
-385.96
-379.22
-355.69
-320.33
-279.70
-239.95
-205.51
-178.63
-159.59
-147.15
-139.30
-133.97
-129.64
-125.83
-122.89
-121.49
-121.79
-122.96
-123.32
-121.07
-115.20
-105.61
-92.71
-76.67
-57.07
-33.74
-8.35
14.33
27.02
22.46
-2.78
-45.52
-96.00
-141.07
-169.37
-175.38
-160.83
-132.68
-99.30
-67.01
-38.50
-13.37
10.14
33.44
56.93
80.21
102.73
124.37
145.69
167.58
190.94
216.35
243.67
272.33
301.90
332.79
366.39
404.09
445.65
487.38
522.04
540.70
535.93
505.02
451.07
381.33
303.71
223.74
143.77
65.00
-9.53
-73.31
-117.64
-135.49
-125.59
-94.11
-52.72
-14.16
12.13
22.22
16.97
-0.71
-28.27
-64.15
-106.75
-152.82
-196.96
-232.86
-255.45
-262.65
-255.60
-237.65
-212.33
-182.00
-147.52
-108.85
-66.01
-19.65
28.86
77.77
125.27
169.98
211.03
248.04
280.74
308.46
329.57
341.36
340.54
324.46
292.75
248.52
198.35
150.76
113.43
90.30
79.87
75.58
68.36
50.34
18.05
-25.90
-73.55
-114.14
-137.61
-137.79
-114.35
-73.09
-24.20
20.64
51.90
65.13
61.94
48.82
34.09
24.56
23.27
29.36
39.35
49.33
56.37
59.01
56.79
49.84
38.75
24.92
10.86
-0.22
-5.36
-3.10
5.71
18.00
29.70
37.22
38.75
34.70
27.06
18.38
10.51
4.00
-1.82
-8.28
-16.62
-27.43
-40.40
-54.46
-67.94
-79.07
-86.34
-88.94
-87.12
-82.19
-76.41
-72.28
-71.78
-75.49
-82.31
-89.57
-93.86
-92.25
-83.24
-67.25
-46.31
-23.25
-0.71
19.41
36.06
48.61
56.34
58.33
53.64
41.74
22.95
-1.42
-29.23
-57.66
-83.56
-103.73
-115.21
-115.85
-104.91
-83.44
-54.29
-21.58
10.30
37.68
58.36
71.76
78.40
79.11
74.44
64.52
49.42
29.87
7.62
-14.56
-33.62
-47.27
-54.73
-56.84
-55.44
-52.34
-48.56
-44.28
-39.22
-33.31
-27.03
-21.20
-16.66
-13.84
-12.65
-12.73
-13.69
-15.28
-17.30
-19.55
-21.77
-23.80
-25.67
-27.57
-29.63
-31.69
-33.22
-33.54
-32.16
-29.17
-25.24
-21.35
-18.40
-16.87
-16.72
-17.65
-19.27
-21.27
-23.37
-25.20
-26.26
-26.02
-24.11
-20.63
-16.16
-11.66
-8.11
-6.30
-6.61
-9.05
-13.28
-18.72
-24.68
-30.43
-35.46
-39.45
-42.32
-43.89
-43.76
-41.20
-35.38
-25.90
-13.20
1.32
15.56
27.34
35.06
38.03
36.44
31.21
23.61
15.14
7.38
1.79
-0.54
0.79
5.40
12.16
19.63
26.52
32.16
36.49
39.88
42.56
44.33
44.50
42.31
37.37
30.01
21.22
12.17
3.77
-3.66
-10.21
-15.99
-20.80
-24.14
-25.61
-25.28
-23.95
-22.80
-22.75
-23.94
-25.34
-25.12
-21.24
-12.29
2.08
20.96
42.49
64.19
83.28
97.09
103.25
100.07
87.00
64.95
36.42
5.22
-24.33
-48.42
-64.62
-72.30
-72.44
-67.02
-58.28
-48.25
-38.45
-30.08
-24.12
-21.44
-22.54
-27.33
-34.82
-43.21
-50.19
-53.57
-51.96
-45.30
-35.00
-23.64
-14.23
-9.37
-10.60
-18.15
-31.10
-47.86
-66.46
-84.72
-100.33
-111.16
-115.98
-115.31
-111.77
-109.52
-112.45
-122.11
-136.38
-149.73
-155.15
-146.89
-122.42
-82.87
-32.10
24.83
82.61
135.94
179.40
207.88
217.79
208.60
183.71
149.66
113.65
80.64
51.79
24.86
-3.25
-33.61
-63.76
-88.15
-100.58
-96.85
-76.32
-41.77
2.07
50.04
97.55
140.62
175.51
198.82
208.04
202.29
182.52
151.04
110.85
65.16
17.45
-28.14
-66.98
-94.57
-107.67
-105.30
-88.84
-61.36
-26.53
12.17
51.65
88.84
120.32
142.60
152.81
149.64
133.94
108.58
77.71
45.83
16.91
-6.12
-21.55
-28.86
-28.62
-22.25
-11.74
0.63
12.67
22.42
28.39
29.55
25.39
16.12
2.72
-13.01
-28.87
-42.65
-52.85
-58.85
-60.88
-59.64
-55.70
-49.38
-40.79
-30.31
-18.77
-7.38
2.78
11.16
17.94
23.70
28.97
33.81
37.82
40.49
41.48
40.60
37.52
31.66
22.53
10.51
-2.41
-12.74
-16.33
-10.05
6.59
30.93
57.74
80.71
93.96
93.30
76.99
46.20
5.11
-39.59
-79.90
-108.48
-120.46
-114.84
-94.60
-65.69
-35.09
-9.00
8.70
16.93
17.04
11.78
3.87
-5.01
-14.56
-25.38
-37.89
-51.33
-63.49
-71.54
-73.49
-69.27
-60.85
-51.13
-42.34
-34.90
-27.47
-18.18
-6.40
6.16
15.74
18.33
11.83
-2.48
-20.07
-34.96
-42.28
-40.24
-30.43
-16.52
-2.28
10.12
20.46
29.61
38.22
45.76
50.58
50.95
46.24
37.59
27.56
19.12
14.39
13.96
16.87
21.38
25.70
28.67
29.91
29.47
27.55
24.21
19.33
12.80
4.82
-4.00
-12.63
-19.95
-25.18
-28.14
-29.35
-29.80
-30.51
-32.21
-35.09
-38.88
-42.99
-46.71
-49.20
-49.60
-47.19
-41.60
-33.26
-23.46
-14.08
-7.01
-3.49
-3.61
-6.50
-10.78
-15.22
-19.37
-23.60
-28.92
-36.29
-46.01
-57.29
-68.32
-76.70
-80.14
-77.13
-67.28
-51.52
-31.88
-11.25
7.35
21.57
30.28
33.86
33.42
29.65
21.65
6.50
-20.04
-62.04
-121.35
-196.07
-279.81
-362.72
-433.66
-483.16
-506.17
-503.29
-480.04
-444.40
-403.68
-362.24
-321.12
-279.37
-236.18
-192.36
-150.23
-112.26
-79.42
-50.39
-22.19
8.31
42.75
80.48
118.66
153.55
182.15
203.43
218.91
231.99
246.85
267.10
294.94
330.26
370.21
409.28
439.86
453.86
444.64
409.46
350.95
277.34
200.53
132.60
82.12
51.47
36.72
29.62
21.11
4.44
-23.05
-60.02
-102.62
-146.04
-185.53
-216.67
-235.04
-236.28
-216.95
-176.06
-116.54
-45.87
25.12
84.93
125.33
144.42
147.41
144.63
147.22
162.61
191.74
229.31
266.47
294.86
309.74
310.94
301.73
286.39
267.95
246.96
221.75
189.70
148.87
99.22
42.91
-16.36
-74.26
-126.59
-169.46
-198.98
-211.39
-203.69
-175.20
-128.93
-71.98
-13.85
35.89
70.57
88.36
92.46
89.49
86.67
89.04
97.93
111.35
125.16
134.86
137.17
130.66
115.80
94.55
69.80
45.01
24.25
10.88
6.44
9.89
17.90
26.41
32.68
36.81
41.83
54.02
78.45
115.84
161.27
205.60
239.12
255.24
252.33
233.44
207.84
184.57
169.06
161.66
159.30
158.90
159.63
162.75
169.59
184.97
209.48
238.02
261.08
270.05
262.91
246.20
231.77
230.69
255.94
312.49
396.66
498.22
605.38
709.48
805.60
889.85
909.86
827.25
631.36
351.94
45.46
-234.15
-455.32
-610.77
-709.64
-768.08
-794.54
-794.32
-771.81
-733.50
-687.96
-642.79
-602.65
-569.41
-543.40
-518.38
-488.51
-450.76
-406.75
-361.68
-320.77
-286.81
-259.58
-237.41
-215.09
-189.32
-160.41
-132.74
-112.74
-104.33
-106.24
-111.97
-112.23
-96.80
-60.24
-4.86
59.00
115.64
150.80
157.06
136.18
97.46
53.94
16.56
-9.28
-23.88
-31.72
-36.51
-39.30
-39.03
-34.68
-27.44
-21.30
-22.14
-30.00
-45.68
-67.73
-93.15
-117.90
-137.53
-147.17
-141.74
-117.14
-72.17
-12.64
52.20
112.08
159.53
191.58
209.09
214.46
209.14
192.69
160.49
110.98
47.18
-22.41
-87.38
-139.60
-175.59
-196.21
-204.84
-208.76
-211.99
-216.16
-219.87
-221.63
-222.15
-224.49
-232.64
-227.10
-196.63
-140.38
-70.85
-1.89
58.69
109.22
151.03
186.26
217.15
235.75
244.21
244.94
242.10
239.65
239.71
242.24
245.72
247.83
242.83
234.09
222.01
208.26
194.80
182.74
172.12
162.40
153.04
142.10
129.45
114.38
97.88
81.46
66.16
52.15
39.02
26.18
12.42
-2.21
-18.15
-34.71
-50.93
-66.31
-81.09
-96.04
-112.04
-129.85
-149.21
-169.86
-190.89
-211.43
-231.12
-250.37
-269.94
-290.65
-313.20
-338.06
-365.93
-396.88
-429.70
-461.50
-488.00
-504.69
-508.54
-499.09
-478.35
-449.75
-416.28
-379.62
-340.27
-298.81
-256.97
-217.96
-185.39
-161.70
-146.83
-137.92
-130.51
-120.10
-103.74
-80.61
-51.96
-20.24
11.79
41.41
66.23
84.20
93.78
94.41
86.79
72.99
55.93
38.66
23.74
12.97
7.60
8.49
16.18
30.51
50.24
73.13
96.51
118.03
136.22
150.52
160.77
166.87
168.53
165.79
159.44
151.21
143.27
137.37
134.00
132.18
130.07
125.91
118.91
109.61
99.43
89.98
82.33
76.66
72.18
67.50
61.10
51.86
39.63
25.38
11.07
-1.16
-9.73
-14.15
-15.04
-13.64
-11.26
-8.83
-6.93
-5.82
-5.47
-5.34
-4.30
-0.77
6.73
18.80
34.76
52.82
70.73
86.55
99.07
107.57
111.47
110.12
103.07
90.62
74.24
56.44
40.03
27.02
17.96
12.04
7.83
4.34
1.56
0.22
1.01
3.73
7.10
9.29
8.79
5.07
-1.37
-9.44
-17.94
-25.80
-32.05
-35.68
-35.83
-32.02
-24.52
-14.29
-2.65
9.24
20.74
31.96
43.76
57.45
74.54
96.26
122.98
153.79
186.34
217.25
242.75
259.49
265.03
257.98
237.99
205.67
162.74
112.18
58.10
5.16
-42.29
-81.15
-110.09
-129.64
-141.70
-148.79
-153.18
-156.50
-159.88
-164.45
-171.93
-184.73
-205.17
-234.15
-270.09
-308.85
-345.00
-373.56
-391.67
-398.74
-395.67
-383.42
-362.23
-331.95
-293.23
-248.55
-202.05
-158.46
-121.24
-91.30
-66.82
-44.27
-19.79
9.66
45.59
87.41
132.10
174.39
207.79
226.43
227.20
211.17
183.55
152.01
124.20
105.71
99.18
104.78
121.38
147.65
182.43
224.60
272.58
323.78
374.22
418.62
450.94
465.55
459.00
431.16
385.30
326.91
261.49
192.75
122.15
50.10
-22.01
-90.28
-148.62
-190.49
-211.59
-211.65
-194.56
-166.80
-135.17
-104.76
-78.17
-55.99
-37.98
-24.23
-15.60
-13.41
-18.64
-31.11
-49.08
-69.68
-89.66
-106.33
-118.16
-124.55
-125.17
-119.18
-105.06
-81.20
-46.92
-3.54
45.39
94.71
138.92
173.46
195.44
203.69
198.26
179.70
148.74
106.56
55.48
-0.34
-54.73
-100.40
-130.45
-140.13
-127.85
-95.34
-46.70
12.54
76.16
137.39
189.09
224.38
237.99
227.84
195.60
145.93
84.59
16.84
-53.02
-120.72
-180.78
-226.33
-250.40
-248.29
-219.46
-167.83
-100.60
-26.39
46.14
108.96
154.71
177.13
172.33
140.30
86.03
19.04
-48.55
-104.98
-141.69
-155.03
-146.46
-121.26
-86.38
-48.35
-12.03
19.54
44.50
61.42
69.04
66.96
56.37
40.25
22.61
7.08
-4.37
-11.76
-16.53
-20.26
-23.71
-26.44
-27.32
-25.31
-20.05
-12.21
-3.17
5.37
12.06
16.27
18.24
18.83
19.10
19.84
21.16
22.55
23.15
22.21
19.47
15.33
10.71
6.82
4.76
5.27
8.41
13.49
19.24
24.17
26.99
27.17
25.26
22.83
22.12
25.44
34.46
49.50
69.15
90.30
108.63
119.55
119.20
105.25
77.43
37.43
-11.60
-65.58
-120.16
-171.23
-215.28
-249.65
-272.60
-283.24
-281.29
-267.14
-241.80
-206.91
-164.77
-117.78
-67.81
-15.57
39.27
97.00
156.26
212.84
259.79
289.31
295.56
276.92
236.69
181.75
119.81
57.12
-2.57
-57.53
-106.37
-146.68
-174.74
-186.49
-179.14
-152.52
-109.33
-54.54
5.91
66.37
122.23
169.85
206.14
228.24
233.61
220.70
189.82
143.46
85.87
21.75
-44.99
-111.67
-176.33
-236.45
-288.08
-326.03
-345.35
-343.23
-320.35
-280.65
-229.63
-172.30
-112.02
-50.93
8.55
62.41
105.06
130.80
136.16
121.49
91.16
52.12
11.71
-24.02
-51.17
-67.69
-72.68
-65.85
-47.62
-19.50
15.67
53.81
90.41
121.50
144.39
158.10
163.20
161.25
154.12
143.50
130.59
116.09
100.43
83.98
67.31
51.22
36.59
24.14
14.22
6.67
1.03
-3.30
-6.75
-9.56
-11.80
-13.48
-14.61
-15.22
-15.34
-15.04
-14.53
-14.01
-13.63
-13.22
-12.37
-10.54
-7.41
-3.14
1.64
6.09
9.59
11.95
13.46
14.52
15.38
16.09
16.49
16.59
16.60
16.88
17.64
18.73
19.60
19.61
18.37
15.98
12.99
10.00
7.36
4.98
2.54
-0.18
-3.06
-5.61
-7.29
-7.80
-7.24
-6.06
-4.77
-3.65
-2.64
-1.50
-0.01
1.77
3.53
4.83
5.30
4.95
4.07
3.12
2.32
1.58
0.43
-1.61
-4.65
-8.20
-11.29
-12.95
-12.60
-10.32
-6.66
-2.38
1.88
5.70
8.69
10.49
10.73
9.29
6.49
3.07
-0.05
-2.13
-2.89
-2.51
-1.36
0.15
1.76
3.24
4.35
4.75
4.18
2.72
0.74
-1.19
-2.63
-3.53
-4.23
-5.23
-6.83
-8.95
-11.13
-12.94
-14.27
-15.45
-17.12
-19.70
-23.19
-27.00
-30.32
-32.47
-33.23
-32.82
-31.48
-29.20
-25.61
-20.17
-12.68
-3.65
5.59
13.23
17.58
17.66
13.55
6.33
-2.19
-9.99
-15.37
-17.36
-15.97
-12.16
-7.47
-3.51
-1.39
-1.32
-2.80
-4.98
-7.13
-9.08
-11.17
-13.91
-17.71
-22.71
-28.76
-35.37
-41.39
-44.79
-42.99
-33.77
-16.59
6.43
30.82
51.18
63.43
66.32
61.63
52.75
42.78
33.21
23.91
14.15
3.86
-5.84
-13.14
-16.59
-15.91
-12.12
-6.99
-2.28
0.98
2.62
3.07
2.77
1.92
0.34
-2.33
-6.17
-10.80
-15.29
-18.45
-19.39
-17.87
-14.38
-9.96
-5.71
-2.48
-0.65
-0.16
-0.83
-2.46
-4.92
-8.00
-11.36
-14.55
-17.14
-18.97
-20.21
-21.27
-22.50
-23.89
-25.00
-25.14
-23.80
-21.05
-17.79
-15.34
-15.00
-17.39
-22.07
-27.66
-32.34
-34.48
-33.20
-28.61
-21.58
-13.50
-5.84
0.15
3.83
5.68
7.76
13.72
27.91
53.69
91.54
137.95
186.06
227.77
256.52
269.17
266.18
250.14
223.76
188.65
145.31
94.30
37.21
-22.91
-82.27
-137.34
-185.64
-225.61
-256.14
-275.78
-282.50
-274.28
-249.79
-209.28
-154.87
-90.38
-20.70
48.74
112.62
166.03
204.71
225.60
227.20
209.99
176.43
130.35
75.73
15.58
-48.32
-114.57
-180.36
-240.29
-286.86
-312.67
-313.50
-290.40
-249.37
-198.37
-143.53
-86.83
-27.21
36.09
99.59
154.51
189.35
194.82
168.15
114.33
43.93
-31.02
-100.37
-157.18
-197.45
-218.86
-220.31
-202.28
-167.25
-119.41
-63.35
-2.73
60.02
122.47
180.61
228.30
258.15
263.93
243.13
198.24
136.24
66.53
-1.49
-60.35
-105.34
-134.05
-145.80
-141.12
-121.72
-90.68
-52.53
-12.66
23.63
52.22
71.01
80.09
81.32
77.37
70.71
62.91
54.49
45.35
35.21
24.35
13.75
5.05
-0.08
-0.53
3.67
11.35
20.55
29.29
36.27
41.13
44.25
46.20
47.30
47.43
46.22
43.37
38.98
33.50
27.53
21.55
15.77
10.19
4.74
-0.53
-5.46
-9.86
-13.65
-17.01
-20.36
-24.19
-28.87
-34.36
-40.25
-45.82
-50.37
-53.49
-55.10
-55.37
-54.60
-52.98
-50.59
-47.51
-43.97
-40.29
-36.81
-33.60
-30.42
-26.77
-22.22
-16.52
-9.77
-2.32
5.35
12.77
19.49
25.02
28.91
30.81
30.67
28.86
26.03
22.93
20.09
17.59
15.12
12.24
8.71
4.62
0.36
-3.67
-7.39
-11.13
-15.46
-20.79
-27.09
-33.85
-40.29
-45.82
-50.42
-54.65
-59.45
-65.66
-73.68
-83.40
-94.42
-106.28
-118.48
-130.35
-140.81
-148.25
-150.78
-146.68
-134.98
-115.71
-89.99
-59.64
-26.81
6.39
38.07
66.51
90.22
107.98
119.15
123.92
123.45
119.57
114.42
109.80
106.73
105.47
105.61
106.67
108.45
111.17
115.38
121.59
129.83
139.47
149.23
157.31
161.91
161.63
155.76
144.48
128.57
109.21
87.68
65.30
43.42
23.39
6.49
-6.45
-15.30
-20.72
-23.94
-26.30
-28.83
-31.99
-35.68
-39.52
-43.19
-46.51
-49.49
-52.22
-54.68
-56.69
-57.95
-58.23
-57.38
-55.48
-52.80
-49.71
-46.60
-43.77
-41.39
-39.39
-37.47
-35.17
-31.96
-27.49
-21.74
-15.11
-8.32
-2.15
2.81
6.33
8.55
9.88
10.70
11.35
11.97
12.68
13.56
14.63
15.83
16.89
17.46
17.16
15.89
13.81
11.41
9.25
7.72
6.85
6.36
5.73
4.45
2.20
-1.06
-5.09
-9.36
-13.09
-15.32
-15.15
-11.91
-5.57
3.22
13.07
22.23
29.05
32.41
32.01
28.35
22.49
15.78
9.54
4.79
2.11
1.57
2.73
4.83
6.98
8.47
8.96
8.49
7.34
5.94
4.60
3.46
2.49
1.48
0.05
-2.19
-5.54
-10.09
-15.50
-21.14
-26.21
-30.00
-32.08
-32.42
-31.40
-29.68
-28.10
-27.40
-28.10
-30.25
-33.40
-36.75
-39.40
-40.63
-40.11
-37.85
-34.02
-28.67
-21.81
-13.51
-4.27
4.97
12.91
18.35
20.66
19.96
17.06
13.04
8.85
5.07
1.97
-0.33
-1.60
-1.57
-0.06
2.80
6.40
9.91
12.43
13.41
12.71
10.63
7.69
4.38
1.13
-1.83
-4.29
-6.08
-7.02
-7.00
-5.99
-4.07
-1.40
1.87
5.70
10.26
16.14
24.31
36.00
52.14
72.73
96.39
120.34
141.09
155.35
161.07
157.79
146.40
128.65
106.44
81.47
55.28
29.30
4.87
-16.93
-35.52
-50.98
-63.80
-74.44
-83.02
-89.25
-92.98
-94.94
-97.29
-103.35
-116.70
-139.74
-172.60
-212.76
-255.64
-295.79
-328.29
-349.74
-358.69
-355.62
-342.32
-321.20
-294.69
-264.76
-232.91
-200.23
-167.46
-134.90
-102.50
-70.04
-37.80
-7.03
20.11
41.28
55.09
61.69
62.27
57.57
46.66
26.83
-4.70
-48.15
-99.24
-149.49
-188.82
-209.30
-207.98
-187.44
-154.02
-114.71
-74.51
-35.47
2.78
41.51
81.51
122.53
163.23
201.80
236.41
265.59
288.37
304.41
314.05
318.26
318.41
315.86
311.52
305.60
297.56
286.40
271.08
251.04
226.69
199.50
171.89
146.68
126.51
113.28
107.78
109.60
117.09
127.54
137.67
144.34
145.35
139.90
128.66
113.27
95.76
78.15
62.38
50.47
44.50
46.16
56.01
72.85
93.66
114.36
131.06
141.27
144.65
142.82
138.60
134.78
133.17
134.22
137.27
141.23
145.27
149.24
153.27
157.25
160.46
161.55
159.33
153.31
143.84
131.62
116.75
98.72
77.60
55.97
39.89
37.51
55.14
92.93
142.82
190.63
221.75
227.36
208.01
172.26
131.71
95.06
64.84
38.01
9.58
-23.39
-59.64
-94.44
-122.37
-139.87
-146.86
-146.80
-145.00
-146.77
-155.98
-174.59
-202.75
-239.10
-280.42
-321.09
-353.19
-368.01
-359.15
-325.73
-274.11
-216.13
-165.10
-130.86
-116.98
-121.22
-139.03
-167.19
-205.53
-255.16
-314.64
-377.17
-430.84
-462.28
-461.75
-427.29
-365.91
-291.24
-219.46
-165.12
-137.94
-140.81
-169.52
-213.76
-259.79
-294.24
-307.80
-297.36
-265.63
-218.39
-160.93
-96.39
-26.88
44.03
109.40
159.76
186.40
185.28
158.71
114.30
61.10
6.32
-46.13
-94.77
-138.83
-176.93
-207.02
-227.30
-236.73
-235.07
-222.34
-198.50
-164.07
-120.94
-72.68
-23.42
23.47
66.65
106.73
145.31
183.90
223.60
265.59
311.64
363.24
419.71
476.43
524.70
554.28
557.75
534.44
491.67
442.50
400.75
375.75
369.36
376.51
387.99
394.60
389.85
370.66
336.87
290.73
236.99
183.19
138.91
112.92
109.76
126.88
154.52
178.92
187.59
174.35
141.51
98.12
55.33
21.45
-1.11
-15.56
-28.10
-44.61
-68.25
-98.96
-134.33
-171.08
-206.36
-238.60
-267.68
-294.78
-322.39
-353.92
-392.44
-438.76
-489.55
-536.62
-568.55
-574.38
-547.68
-489.71
-409.71
-322.18
-242.33
-181.17
-142.34
-121.70
-109.49
-94.32
-67.51
-26.32
25.01
76.60
116.02
132.43
120.27
81.36
24.96
-34.71
-82.84
-108.98
-110.89
-95.58
-76.46
-67.81
-78.67
-109.01
-150.00
-188.03
-210.33
-209.19
-183.25
-135.95
-73.25
-2.26
68.67
129.71
170.74
184.20
168.67
130.97
84.67
45.48
25.45
28.78
50.94
81.62
109.21
125.13
126.41
115.73
99.08
82.58
69.68
60.14
51.48
42.12
34.35
34.71
50.91
86.89
138.81
194.74
238.81
257.73
246.00
206.75
148.68
81.17
11.15
-56.80
-118.00
-165.42
-190.16
-185.34
-150.49
-94.09
-32.02
17.82
41.66
33.51
-4.83
-66.46
-142.54
-223.94
-301.12
-363.75
-401.86
-408.41
-382.23
-329.03
-259.96
-188.09
-124.21
-74.28
-38.78
-13.75
7.63
32.81
67.50
112.98
164.28
210.76
239.69
241.97
217.22
174.69
129.78
97.03
83.46
85.81
92.94
91.81
73.38
35.49
-17.75
-79.28
-142.00
-199.87
-247.43
-279.18
-290.09
-277.22
-241.70
-189.17
-128.27
-67.93
-14.77
28.64
63.42
93.12
122.49
156.13
197.44
247.48
304.09
362.01
414.55
455.77
482.52
495.26
496.88
490.70
478.44
459.72
433.12
397.97
355.75
310.11
265.73
226.53
194.49
169.21
148.46
129.07
107.92
82.47
51.39
14.78
-26.53
-70.97
-117.08
-163.97
-211.27
-259.29
-309.05
-362.28
-420.99
-486.39
-557.27
-628.95
-693.56
-742.13
-767.73
-768.02
-746.10
-708.76
-663.72
-616.74
-570.59
-525.67
-481.57
-438.25
-396.19
-355.57
-315.54
-274.35
-230.34
-183.12
-134.05
-85.63
-40.55
-0.23
35.64
69.04
102.43
137.52
174.42
211.84
247.82
280.92
311.01
339.24
367.96
399.87
437.42
482.15
533.95
590.23
645.47
691.73
720.45
725.95
706.86
666.29
610.04
544.34
474.04
401.90
329.19
256.52
186.15
120.24
58.95
-1.14
-66.45
-143.56
-235.57
-339.61
-446.57
-540.09
-603.29
-624.98
-604.07
-548.91
-472.57
-386.91
-299.19
-211.71
-119.92
-18.36
95.47
219.06
345.90
468.10
578.12
668.77
715.02
697.15
612.01
480.28
336.76
211.54
118.70
57.33
20.24
-5.67
-25.83
-40.99
-51.10
-59.03
-70.39
-91.57
-124.65
-167.25
-214.44
-257.88
-291.34
-312.40
-322.45
-323.27
-314.46
-293.22
-257.33
-208.23
-150.31
-91.18
-39.15
-0.85
21.90
32.17
35.93
38.48
41.59
43.99
41.30
29.10
4.11
-32.72
-76.07
-117.93
-150.58
-169.54
-174.11
-167.15
-149.70
-126.84
-102.28
-77.68
-53.99
-32.98
-17.11
-8.60
-8.73
-16.45
-30.29
-47.93
-67.64
-88.97
-111.49
-132.97
-147.29
-147.37
-127.95
-89.52
-38.61
14.98
61.33
92.87
106.85
105.20
92.13
71.80
46.32
16.45
-17.15
-53.57
-91.00
-126.61
-157.41
-181.14
-196.53
-203.50
-204.61
-201.24
-194.29
-184.20
-170.84
-153.84
-133.38
-109.97
-84.44
-57.36
-28.70
0.40
26.61
44.51
48.15
34.05
4.08
-34.52
-71.61
-98.10
-109.92
-108.79
-99.93
-88.56
-77.09
-64.24
-47.56
-25.91
-0.58
25.23
48.54
68.22
85.23
101.57
120.24
142.16
165.56
186.98
202.84
211.49
214.14
214.15
215.84
225.38
246.05
277.44
316.22
358.14
400.02
440.27
478.34
514.30
552.62
596.55
646.89
701.11
753.91
798.85
829.75
842.10
834.04
812.01
782.62
749.95
714.06
672.29
622.47
564.98
502.87
407.45
268.52
94.26
-90.24
-256.79
-388.06
-480.10
-537.17
-566.33
-574.55
-562.27
-533.30
-494.23
-454.00
-421.86
-403.79
-400.93
-410.78
-428.01
-442.74
-448.37
-443.52
-430.91
-415.55
-401.76
-391.47
-384.44
-378.74
-368.38
-347.10
-314.60
-268.13
-208.11
-138.52
-65.28
5.74
70.63
129.68
185.26
239.00
288.11
328.90
355.53
363.50
352.07
324.73
286.03
243.19
202.51
168.17
141.00
119.60
101.92
85.84
68.85
47.38
16.93
-27.82
-90.51
-170.98
-263.78
-357.80
-438.06
-489.76
-502.54
-474.09
-412.38
-333.16
-255.55
-196.28
-165.28
-164.46
-190.11
-236.30
-297.73
-370.59
-449.84
-526.41
-586.72
-615.87
-603.05
-546.68
-455.63
-345.82
-234.52
-134.07
-48.80
23.82
88.80
149.46
205.63
255.35
297.63
332.79
362.01
384.69
398.09
398.65
385.02
357.86
325.43
301.05
293.59
301.48
313.05
316.06
305.97
287.07
268.37
253.95
243.18
230.98
213.36
187.84
155.62
120.00
83.06
44.38
1.47
-46.02
-97.71
-149.51
-197.33
-236.47
-262.86
-264.69
-236.31
-181.20
-108.12
-41.41
11.86
50.74
77.03
96.08
109.17
115.24
111.65
99.95
81.38
59.23
35.60
12.87
-6.36
-20.83
-20.32
-15.96
-5.01
12.48
35.39
60.11
81.75
95.84
97.71
85.18
56.79
15.34
-27.88
-61.69
-98.43
-150.15
-213.86
-286.46
-361.97
-434.20
-495.15
-541.02
-571.14
-561.35
-497.63
-381.79
-233.75
-78.46
64.37
186.75
285.26
356.47
405.33
433.31
441.68
432.15
409.57
379.30
346.84
312.15
273.23
228.46
175.06
112.73
43.86
-25.55
-89.39
-141.15
-181.36
-213.07
-239.76
-266.39
-296.68
-333.33
-377.07
-429.02
-465.11
-467.94
-428.38
-349.01
-242.66
-126.04
-16.27
72.07
121.45
133.31
111.13
63.51
2.57
-59.99
-115.65
-160.60
-178.15
-162.07
-112.73
-42.06
34.71
104.00
156.37
187.42
197.60
193.57
180.67
165.49
150.73
137.25
124.67
112.00
98.19
82.59
65.81
47.58
30.10
15.95
8.93
12.76
28.73
54.28
80.19
94.60
88.27
61.17
20.51
-24.11
-65.17
-99.37
-126.70
-149.93
-168.77
-180.69
-182.36
-171.56
-148.45
-114.85
-73.39
-25.89
24.32
72.94
115.90
150.07
174.34
188.42
192.65
187.71
174.73
155.35
132.40
109.16
87.91
70.20
55.91
44.09
33.26
21.98
9.24
-4.98
-16.75
-27.41
-37.69
-48.58
-60.73
-74.87
-91.49
-110.69
-131.87
-154.01
-176.50
-198.22
-218.60
-236.67
-251.90
-263.87
-272.20
-276.29
-275.28
-268.38
-253.56
-233.74
-210.18
-184.16
-157.08
-130.34
-105.13
-82.44
-63.18
-47.67
-36.11
-27.86
-22.24
-18.61
-16.31
-14.70
-13.22
-11.54
-9.37
-6.72
-3.31
0.79
5.29
9.81
14.04
17.74
20.82
23.39
25.57
27.75
30.13
32.76
35.64
38.88
42.71
47.57
53.94
62.16
72.36
84.26
97.12
110.07
122.43
133.95
144.89
155.92
167.75
180.89
195.35
210.72
226.28
241.29
255.19
267.85
279.68
291.84
306.31
325.29
350.04
379.55
409.86
434.78
448.06
445.95
428.89
401.62
371.49
345.92
330.00
325.37
330.26
340.57
351.33
357.86
356.93
347.17
329.12
304.75
276.72
247.54
219.09
192.35
167.59
144.61
123.11
102.92
84.98
72.06
68.45
77.91
100.82
133.17
167.43
195.87
213.06
218.23
214.56
206.70
197.59
186.37
170.19
146.84
117.56
85.13
53.04
23.46
-3.30
-28.66
-56.27
-88.17
-123.19
-155.50
-181.65
-200.13
-211.93
-218.68
-222.46
-228.79
-241.34
-259.92
-276.73
-289.22
-297.11
-302.41
-306.16
-308.92
-317.04
-334.79
-361.37
-384.57
-401.10
-410.84
-416.36
-418.16
-416.22
-418.99
-433.51
-461.23
-489.40
-517.44
-547.92
-585.53
-630.66
-631.51
-557.64
-414.34
-291.47
-209.31
-173.36
-161.96
-166.71
-179.78
-194.75
-215.76
-247.58
-290.86
-302.76
-265.89
-184.97
-83.14
17.49
104.11
167.24
204.48
219.85
228.42
233.25
234.46
230.72
224.35
218.60
211.92
202.27
189.41
179.61
171.67
163.23
152.22
139.77
128.09
116.98
105.70
94.08
84.95
76.92
67.92
56.52
43.47
30.42
18.37
7.99
-0.09
-6.64
-11.43
-15.50
-19.90
-24.83
-29.85
-34.35
-37.84
-40.27
-42.23
-44.93
-50.24
-59.52
-73.12
-90.22
-109.14
-128.04
-145.46
-160.87
-174.33
-186.92
-200.06
-215.24
-233.88
-256.85
-283.62
-311.42
-335.18
-348.31
-345.59
-325.38
-290.79
-248.70
-206.95
-171.44
-144.12
-125.16
-113.00
-105.73
-102.06
-101.61
-104.12
-108.74
-113.94
-117.92
-119.48
-117.88
-112.95
-104.78
-93.27
-77.89
-57.99
-32.97
-3.02
30.63
66.20
101.63
135.15
165.57
192.36
215.31
234.47
249.81
261.12
268.36
271.67
271.32
267.61
260.68
250.45
237.46
223.05
209.35
199.37
196.34
203.28
222.26
254.42
300.18
360.84
436.25
522.87
612.36
692.63
750.98
777.94
769.87
728.89
663.52
582.20
489.86
387.75
276.44
160.09
47.90
-48.38
-119.13
-155.87
-157.44
-129.96
-84.37
-32.32
17.96
63.21
103.64
140.87
182.63
236.17
306.14
393.22
494.44
605.01
719.13
829.47
886.64
852.04
711.17
486.31
226.58
-17.88
-215.50
-357.16
-449.90
-507.77
-537.98
-543.82
-527.38
-493.18
-449.52
-405.78
-369.51
-344.47
-330.85
-321.48
-307.56
-284.73
-253.80
-220.18
-190.30
-169.48
-159.99
-161.50
-169.02
-177.48
-184.04
-189.01
-193.02
-197.56
-204.37
-213.48
-223.50
-231.19
-233.78
-230.16
-220.75
-211.90
-203.62
-195.76
-187.06
-175.80
-160.36
-140.52
-117.60
-93.70
-71.53
-52.21
-37.83
-28.90
-25.05
-26.19
-33.13
-47.93
-69.12
-97.20
-131.81
-173.66
-220.14
-264.93
-299.59
-316.40
-311.54
-286.82
-250.04
-202.30
-152.34
-109.65
-79.90
-63.23
-56.25
-55.44
-58.65
-67.66
-80.27
-94.29
-105.68
-109.83
-103.32
-84.72
-54.42
-12.34
40.38
102.01
166.70
227.62
278.74
316.22
338.67
346.55
341.56
325.97
302.94
275.02
245.22
216.53
191.13
169.72
151.78
136.20
121.70
107.60
93.42
79.40
66.46
55.40
46.52
39.53
33.80
28.53
23.32
17.85
12.15
6.78
2.27
-1.14
-3.47
-4.97
-6.03
-6.93
-7.77
-8.66
-9.20
-9.03
-7.97
-5.91
-3.00
0.37
3.66
7.48
10.27
11.37
10.34
6.97
1.27
-6.48
-15.86
-26.27
-37.04
-47.64
-57.08
-64.64
-69.77
-72.15
-71.81
-69.15
-64.88
-59.99
-55.75
-52.76
-51.41
-51.77
-53.47
-55.96
-58.70
-61.30
-63.74
-66.39
-68.94
-71.06
-72.15
-71.38
-68.07
-62.07
-54.06
-45.50
-38.45
-34.13
-33.10
-34.78
-37.53
-39.30
-38.23
-33.17
-23.51
-12.69
-1.97
8.56
20.34
35.91
58.42
90.85
134.78
189.07
248.82
306.31
351.69
376.43
376.13
352.33
312.16
265.67
221.84
184.99
154.46
125.27
91.77
49.85
-0.97
-57.01
-111.36
-156.31
-186.50
-199.90
-198.39
-185.71
-167.48
-149.15
-134.11
-121.58
-106.75
-83.43
-45.65
9.20
80.55
160.88
237.63
296.79
328.63
330.08
303.23
254.42
190.77
121.54
53.37
-9.50
-64.90
-110.06
-135.06
-130.59
-94.30
-47.71
-1.90
38.50
76.96
113.32
147.29
177.68
200.93
213.79
212.28
196.70
173.33
150.75
135.35
130.86
137.57
142.93
144.28
140.02
130.67
114.74
98.70
83.51
69.30
56.17
44.29
34.62
25.97
18.21
10.64
1.88
-11.36
-32.25
-62.10
-99.11
-139.58
-180.89
-219.04
-249.91
-269.79
-277.17
-274.04
-262.21
-238.96
-203.41
-159.19
-109.92
-59.19
-10.24
33.62
64.54
77.73
81.52
81.94
78.77
72.20
62.54
50.03
34.33
5.96
-41.63
-95.55
-147.99
-201.01
-255.68
-312.23
-369.98
-427.67
-495.06
-577.44
-654.75
-713.96
-755.38
-779.35
-786.70
-778.95
-683.83
-467.36
-250.34
-82.31
60.89
184.52
292.10
386.02
467.98
539.22
588.76
609.18
618.02
625.64
629.48
627.88
619.83
604.93
583.38
546.78
490.16
428.18
370.28
316.00
265.44
218.94
176.93
139.82
102.15
60.29
22.53
-6.39
-28.07
-43.93
-55.04
-62.24
-66.10
-69.75
-75.12
-78.25
-77.07
-72.89
-67.15
-61.46
-57.26
-55.56
-57.77
-64.31
-72.99
-82.20
-91.69
-101.51
-111.98
-123.36
-135.50
-147.74
-158.96
-168.07
-174.52
-178.62
-181.55
-184.94
-190.17
-197.82
-207.42
-217.89
-227.92
-236.88
-245.16
-254.20
-266.09
-283.21
-307.96
-342.15
-386.09
-437.23
-489.53
-534.24
-562.35
-567.78
-550.01
-514.36
-469.98
-426.39
-390.20
-363.91
-346.84
-337.25
-333.72
-335.65
-342.46
-352.58
-363.32
-370.97
-372.10
-364.95
-350.13
-330.22
-308.63
-287.82
-268.87
-251.69
-234.30
-213.75
-187.83
-156.42
-121.35
-86.04
-53.10
-24.12
0.20
21.84
44.59
71.94
104.87
141.78
178.56
212.11
240.50
262.99
282.50
304.60
334.86
376.44
430.20
494.48
567.56
648.95
724.34
772.38
777.67
740.50
674.56
605.79
545.02
495.48
454.69
416.03
373.53
321.43
257.83
183.78
104.05
30.00
-23.90
-49.54
-50.21
-35.95
-17.47
-1.60
8.91
12.62
11.31
6.41
-1.19
-9.78
-15.15
-12.13
2.08
25.09
49.90
65.80
64.56
44.77
13.15
-18.42
-38.61
-41.63
-28.93
-7.23
15.54
32.70
39.90
36.82
25.97
9.98
-9.72
-32.01
-55.23
-76.97
-95.10
-108.34
-116.72
-121.98
-126.70
-133.23
-141.78
-151.89
-161.29
-167.95
-170.69
-169.44
-165.33
-160.21
-155.97
-152.20
-147.56
-140.24
-128.93
-112.99
-92.31
-66.98
-36.77
-4.09
31.31
69.75
110.88
152.89
192.68
226.63
251.47
265.02
266.47
259.33
248.34
238.53
233.96
237.33
250.40
274.27
309.49
341.56
358.92
354.11
327.32
285.10
235.88
186.11
139.12
95.90
56.24
21.89
-5.60
-25.58
-38.75
-46.92
-52.36
-57.00
-62.21
-68.78
-75.22
-79.93
-81.81
-80.92
-78.08
-74.53
-71.41
-69.44
-68.99
-69.03
-68.51
-66.60
-63.29
-58.78
-53.60
-48.24
-43.06
-38.40
-34.03
-29.82
-24.42
-19.13
-14.68
-11.67
-10.38
-11.03
-13.82
-18.65
-25.25
-33.18
-41.99
-50.73
-58.57
-64.56
-68.32
-70.06
-70.38
-69.95
-69.17
-68.06
-65.88
-61.88
-55.16
-45.86
-35.14
-24.86
-16.82
-11.99
-10.06
-9.34
-7.61
-2.37
7.18
20.16
34.66
48.46
60.20
70.49
82.27
95.34
112.03
134.20
162.18
193.96
224.50
246.54
252.60
237.62
201.12
148.63
89.32
33.55
-9.85
-36.87
-49.21
-52.74
-54.74
-60.98
-72.84
-88.11
-101.48
-105.73
-96.51
-74.55
-44.61
-13.48
12.85
31.27
40.12
39.82
34.45
27.31
19.87
14.35
13.94
22.18
41.78
70.49
102.81
134.89
160.85
173.60
169.90
150.70
120.02
82.79
39.69
-10.45
-64.69
-121.38
-180.87
-240.86
-297.29
-345.73
-363.32
-334.74
-291.43
-252.19
-213.80
-177.87
-145.84
-119.20
-99.51
-88.26
-89.65
-95.58
-95.84
-86.36
-71.33
-55.75
-42.65
-32.52
-24.11
-17.74
-13.50
-8.55
-1.75
4.77
9.14
10.21
7.92
3.73
-1.20
-5.27
-5.88
-2.74
1.32
3.23
0.77
-6.66
-17.82
-30.69
-42.28
-48.66
-46.64
-34.99
-14.23
13.04
42.54
69.81
91.54
106.59
116.07
121.79
124.92
125.63
122.43
112.77
93.98
64.74
27.16
-12.41
-44.34
-58.80
-50.75
-23.93
9.42
33.83
38.34
22.36
-4.52
-28.77
-41.20
-42.40
-41.31
-48.47
-68.66
-97.53
-124.30
-138.45
-136.07
-121.66
-105.04
-95.50
-97.32
-108.77
-124.64
-138.73
-146.85
-146.26
-135.24
-113.10
-80.04
-37.61
11.20
59.91
102.68
134.85
154.80
166.02
169.26
165.48
156.79
147.15
139.73
135.92
133.01
127.49
116.34
99.05
77.88
57.83
46.36
49.01
68.05
99.55
138.11
172.60
194.10
196.57
171.08
118.82
49.93
-10.80
-55.91
-87.66
-115.73
-147.39
-186.81
-233.95
-278.60
-310.92
-322.23
-310.53
-278.97
-237.10
-198.40
-177.03
-181.70
-210.87
-255.00
-299.96
-334.81
-353.59
-357.52
-352.20
-344.13
-336.42
-326.93
-311.60
-287.06
-254.11
-215.62
-174.91
-133.35
-90.19
-43.24
9.83
68.72
130.23
188.16
236.14
269.34
286.09
287.89
279.02
265.28
252.08
243.19
239.86
241.67
247.64
257.40
271.32
289.95
312.60
336.33
356.50
368.82
371.84
368.06
362.47
359.49
360.16
361.75
360.28
354.04
345.67
341.03
345.54
360.28
380.74
398.87
407.07
401.44
382.43
353.01
315.85
271.92
220.86
162.87
100.19
37.04
-21.61
-72.07
-113.17
-146.56
-175.76
-205.05
-238.38
-278.28
-324.83
-374.82
-421.89
-457.73
-474.70
-468.54
-440.12
-395.08
-341.31
-285.43
-230.08
-173.76
-113.18
-46.69
23.13
89.55
144.26
181.18
199.19
202.44
197.91
192.03
188.23
186.55
185.30
182.99
179.26
173.94
165.62
150.85
125.19
86.25
36.42
-16.83
-63.84
-96.74
-112.80
-114.57
-107.30
-96.11
-83.05
-66.83
-45.18
-18.00
11.23
36.37
51.86
55.26
47.07
30.25
8.46
-15.74
-41.91
-70.90
-103.45
-138.30
-172.53
-204.48
-234.26
-263.38
-293.31
-323.83
-351.93
-372.56
-379.94
-363.74
-321.51
-261.97
-201.28
-153.55
-124.93
-109.83
-100.97
-92.73
-81.89
-68.26
-52.25
-33.20
-9.07
22.18
61.38
106.76
154.79
200.90
239.61
266.56
280.10
281.36
272.82
256.57
232.81
200.74
159.58
109.16
51.01
-11.24
-72.73
-128.86
-176.30
-213.60
-240.04
-254.91
-257.34
-246.14
-220.11
-178.85
-123.79
-58.52
11.48
80.27
142.89
196.13
238.87
271.72
296.16
313.58
324.80
329.89
328.42
319.83
303.98
281.51
253.96
223.47
192.21
161.79
132.74
104.57
76.18
46.35
14.09
-21.27
-60.00
-101.63
-144.59
-185.92
-221.49
-247.17
-260.15
-260.18
-249.57
-232.10
-211.19
-188.53
-164.03
-137.03
-107.97
-79.10
-53.83
-35.06
-23.63
-17.87
-14.69
-11.29
-6.56
-1.40
2.31
3.14
1.07
-2.41
-5.20
-5.56
-3.08
1.32
5.75
8.28
7.70
3.85
-2.31
-9.24
-15.42
-19.89
-22.50
-23.79
-24.70
-26.09
-28.44
-31.46
-34.08
-34.76
-32.09
-25.69
-16.57
-7.02
0.31
3.63
2.79
-0.64
-4.11
-4.91
-0.73
9.94
27.64
51.33
77.92
102.58
120.24
128.00
127.19
123.47
124.58
136.69
161.22
193.93
226.87
251.87
263.63
261.07
246.30
222.45
191.83
155.51
114.12
69.25
24.11
-16.99
-50.11
-73.18
-86.73
-93.26
-95.97
-97.22
-97.78
-97.09
-94.11
-88.45
-80.96
-73.68
-69.11
-69.34
-75.10
-85.28
-97.24
-107.77
-114.46
-116.81
-116.11
-114.24
-112.23
-109.37
-103.67
-93.68
-80.11
-66.15
-56.26
-53.96
-60.13
-72.81
-88.48
-103.86
-117.09
-127.93
-137.21
-146.21
-156.15
-167.87
-180.96
-193.48
-202.34
-204.61
-199.40
-188.49
-175.24
-161.95
-147.92
-130.03
-105.42
-74.63
-42.84
-17.56
-4.23
-2.61
-6.49
-7.17
1.52
20.19
44.49
68.18
86.37
96.85
99.45
94.82
84.24
70.13
57.59
54.19
67.44
101.04
152.10
211.39
266.66
307.85
329.86
335.44
333.56
335.00
347.16
370.46
398.50
421.58
431.23
420.83
389.54
341.85
285.13
226.38
169.87
117.15
68.65
24.99
-17.27
-61.55
-110.25
-164.08
-222.29
-283.58
-345.95
-406.27
-460.50
-510.88
-560.73
-612.76
-667.16
-721.77
-774.00
-821.74
-863.34
-860.98
-789.07
-644.19
-451.19
-247.53
-62.27
91.68
213.64
308.43
382.21
434.74
465.28
476.37
472.63
459.73
442.36
422.84
401.07
376.09
343.39
302.44
255.29
206.71
162.12
125.85
99.80
82.79
73.06
61.35
46.64
30.15
14.89
4.09
0.64
5.99
17.90
33.68
50.14
66.16
80.49
97.16
116.12
135.79
153.53
163.04
159.34
140.05
107.00
63.32
11.96
-45.77
-108.89
-176.47
-251.63
-335.51
-425.81
-515.96
-598.49
-667.82
-721.53
-759.05
-752.04
-684.60
-559.35
-398.89
-232.19
-81.28
43.02
138.40
207.32
254.49
280.77
288.35
280.99
265.07
247.93
232.31
217.42
200.33
177.73
143.11
92.25
25.21
-49.99
-119.45
-169.92
-193.24
-189.27
-164.82
-136.74
-116.08
-108.15
-110.72
-117.18
-121.19
-119.41
-112.54
-102.01
-90.31
-79.62
-67.66
-49.42
-19.98
22.96
78.84
144.83
219.99
301.76
382.08
452.28
505.45
535.78
541.49
526.71
499.89
474.02
458.26
450.57
446.04
441.77
436.01
430.35
428.74
412.92
372.34
332.29
296.43
250.65
191.50
120.97
45.38
-27.93
-94.95
-152.32
-200.26
-245.28
-289.84
-329.90
-361.34
-381.02
-380.68
-356.51
-309.16
-246.77
-183.98
-134.33
-95.63
-63.87
-36.96
-15.05
-1.45
1.41
-8.05
-32.04
-69.59
-116.56
-166.23
-212.02
-249.73
-279.41
-301.26
-312.99
-310.33
-288.15
-244.07
-182.87
-115.79
-56.16
-14.50
5.84
8.68
1.65
-7.12
-12.34
-10.23
0.39
19.11
43.81
70.63
94.18
108.77
110.64
98.37
76.98
55.19
41.49
39.98
48.76
61.26
70.15
70.20
59.85
41.87
20.96
2.26
-10.28
-15.29
-13.40
-9.03
-6.48
-7.91
-12.04
-15.34
-13.08
-0.64
23.71
56.75
93.08
126.03
150.33
164.09
167.74
162.53
149.06
126.79
95.39
56.90
16.93
-17.34
-36.97
-38.28
-26.47
-12.86
-7.88
-15.59
-32.93
-52.94
-68.97
-77.75
-80.31
-79.98
-79.65
-80.34
-81.64
-82.60
-82.66
-81.83
-80.78
-80.52
-81.95
-85.18
-89.41
-93.77
-97.56
-100.55
-102.77
-104.25
-104.79
-104.04
-102.19
-98.20
-91.69
-82.88
-72.53
-61.41
-49.95
-37.83
-24.56
-9.69
7.09
25.36
44.39
63.43
82.28
99.42
115.54
131.52
147.55
162.84
175.51
183.54
185.55
181.45
172.65
161.81
151.64
144.41
141.53
142.92
146.48
147.92
141.60
122.65
89.77
46.54
0.60
-38.93
-65.31
-76.73
-76.51
-70.95
-66.27
-66.49
-72.77
-83.86
-96.90
-108.39
-115.12
-115.30
-109.19
-100.03
-92.46
-90.24
-94.56
-103.39
-113.15
-120.23
-122.30
-118.59
-109.26
-94.46
-74.11
-48.35
-19.00
11.04
38.33
59.92
74.17
81.28
83.03
81.81
79.78
78.16
77.07
75.86
73.79
70.45
66.07
61.38
57.18
54.07
52.31
51.75
52.02
52.81
53.85
54.87
56.43
57.27
56.60
53.97
49.39
43.53
37.50
32.59
29.78
29.45
31.19
34.39
38.29
42.38
46.43
50.46
54.56
59.04
64.31
70.49
76.98
81.80
81.68
73.09
54.08
25.68
-7.66
-39.51
-63.89
-77.44
-80.15
-74.61
-64.21
-51.59
-38.22
-24.80
-12.23
-1.83
4.75
6.80
4.95
0.93
-3.14
-5.58
-5.59
-3.25
1.01
6.41
12.59
19.44
26.78
34.27
41.31
47.09
50.68
53.76
56.65
59.43
61.79
63.11
62.69
60.07
55.25
48.72
41.25
33.30
25.39
18.08
11.95
7.63
5.49
5.36
6.45
7.47
6.82
3.57
-2.19
-9.34
-16.06
-20.56
-21.93
-20.21
-16.62
-13.07
-11.33
-12.45
-16.68
-23.51
-31.82
-39.88
-45.48
-46.49
-41.61
-31.23
-17.58
-4.07
6.11
11.38
12.32
11.09
10.01
10.30
11.69
12.87
12.61
10.54
7.28
3.82
0.97
-1.18
-3.01
-4.97
-7.47
-10.44
-13.68
-16.93
-20.15
-23.49
-27.24
-31.70
-37.01
-43.12
-49.74
-56.46
-62.89
-68.68
-73.68
-77.91
-81.49
-84.60
-87.46
-90.24
-93.15
-96.39
-100.15
-104.53
-109.47
-114.79
-120.20
-125.42
-130.12
-134.07
-137.09
-138.98
-139.63
-139.06
-137.35
-134.57
-130.73
-125.67
-119.24
-111.45
-102.55
-92.94
-83.11
-73.25
-63.36
-53.31
-43.03
-32.80
-23.25
-15.12
-8.97
-4.92
-2.52
-0.98
0.49
2.44
4.92
7.68
10.27
12.44
14.19
15.85
17.86
20.37
23.28
26.08
28.16
29.12
28.89
27.72
25.98
23.95
21.64
18.96
15.85
12.49
9.30
6.72
4.99
3.98
3.30
2.50
1.24
-0.52
-2.59
-4.64
-6.25
-6.99
-6.47
-4.56
-1.45
2.35
6.14
9.44
12.15
14.57
17.11
19.97
22.89
25.22
26.33
25.94
24.42
22.65
21.51
21.52
22.54
23.91
24.87
25.02
24.52
23.98
24.11
25.30
27.31
29.55
31.31
32.21
32.35
32.08
31.82
31.58
31.12
29.89
27.54
23.99
19.63
15.05
10.84
7.35
4.63
2.48
0.59
-1.27
-3.16
-4.85
-5.93
-5.97
-4.73
-2.34
0.74
3.84
6.41
8.20
9.28
9.92
10.30
10.47
10.25
9.42
7.88
5.79
3.57
1.80
1.05
1.72
3.77
6.74
9.72
11.76
12.19
10.85
8.13
4.54
0.47
-4.12
-9.56
-16.06
-23.40
-30.88
-37.69
-43.34
-47.96
-52.21
-56.95
-62.62
-69.00
-75.20
-80.04
-82.55
-82.13
-78.62
-72.02
-62.27
-49.22
-32.69
-12.78
10.01
34.66
59.73
83.64
104.97
122.77
136.63
146.64
153.08
156.39
157.02
155.50
152.52
148.92
145.68
143.62
143.26
144.58
146.97
149.48
150.89
150.07
146.26
139.49
130.65
121.40
113.26
106.57
99.80
89.28
70.23
38.41
-7.85
-66.04
-129.31
-187.87
-231.72
-253.58
-251.18
-227.68
-190.46
-148.76
-111.14
-83.58
-68.67
-65.64
-71.00
-79.77
-86.89
-88.80
-84.72
-76.84
-69.00
-64.54
-64.26
-65.92
-65.69
-60.35
-49.16
-34.13
-18.49
-4.67
6.92
17.65
29.25
42.43
56.53
70.29
82.93
94.85
107.06
120.04
132.84
143.21
148.60
147.56
140.68
130.31
119.79
112.11
108.92
110.30
115.13
121.71
128.44
134.09
137.82
139.11
137.65
133.58
127.69
121.57
117.31
116.82
120.98
129.01
138.50
145.89
147.60
141.24
126.17
103.64
76.17
46.58
17.09
-11.28
-38.85
-67.13
-98.22
-133.90
-174.23
-216.39
-254.14
-278.96
-282.78
-261.35
-216.89
-158.37
-99.24
-53.08
-29.60
-32.54
-59.78
-105.01
-159.71
-214.63
-260.69
-289.95
-296.84
-279.40
-240.06
-184.98
-122.66
-61.67
-8.87
31.78
59.56
76.78
87.98
98.17
110.71
125.53
138.64
143.90
136.15
113.89
80.05
40.74
2.71
-28.94
-52.08
-67.43
-77.82
-87.34
-100.13
-119.05
-144.25
-172.94
-200.69
-224.16
-243.27
-261.38
-282.51
-307.49
-331.74
-346.59
-343.68
-319.81
-279.03
-230.38
-183.17
-142.54
-108.11
-76.07
-43.13
-9.20
22.51
47.74
64.11
72.76
78.16
86.36
102.82
130.55
168.99
213.76
257.31
290.48
304.89
295.41
262.11
210.60
150.53
92.63
45.61
14.27
-0.70
-1.32
9.55
29.40
56.01
86.67
117.36
142.92
158.42
160.93
150.82
131.99
110.30
91.27
78.21
71.56
69.60
70.10
71.73
74.49
79.11
85.88
93.85
100.66
103.46
99.95
89.23
72.09
50.66
27.64
5.65
-13.39
-28.43
-39.46
-47.24
-52.97
-57.75
-62.02
-65.42
-66.99
-65.78
-61.38
-54.29
-45.81
-37.61
-31.23
-27.82
-27.96
-31.71
-38.49
-46.92
-54.85
-59.69
-59.13
-51.99
-38.84
-21.96
-4.53
10.36
20.73
26.06
27.00
24.67
19.97
13.46
5.50
-3.17
-11.19
-16.74
-18.25
-15.01
-7.65
2.09
12.10
20.69
27.15
31.64
34.81
37.12
38.58
38.80
37.25
33.64
28.02
20.76
12.42
3.60
-5.03
-12.89
-19.38
-24.07
-26.76
-27.56
-26.80
-24.97
-22.50
-19.68
-16.66
-13.42
-9.83
-5.78
-1.30
3.37
7.68
11.04
13.00
13.51
13.03
12.38
12.39
13.54
15.86
18.93
22.20
25.32
28.21
31.00
33.84
36.63
38.94
40.14
39.54
36.71
31.68
24.98
17.55
10.50
4.81
1.01
-0.76
-0.87
0.08
1.54
3.04
4.35
5.42
6.27
6.86
7.01
6.34
4.39
0.87
-4.33
-10.88
-18.09
-25.04
-30.72
-34.23
-34.95
-32.67
-27.65
-20.65
-12.71
-4.84
2.21
8.16
13.04
16.95
19.81
21.41
21.46
19.89
16.95
13.07
8.75
4.35
0.15
-3.58
-6.49
-8.24
-8.68
-7.95
-6.50
-4.79
-3.16
-1.69
-0.29
1.05
2.19
2.84
2.73
1.82
0.31
-1.48
-3.31
-5.14
-7.09
-9.31
-11.80
-14.32
-16.51
-18.11
-19.16
-20.00
-21.10
-22.73
-24.74
-26.51
-27.09
-25.69
-21.96
-16.31
-9.76
-3.62
1.03
3.72
4.66
4.44
3.65
2.68
1.55
0.21
-1.31
-2.72
-3.59
-3.56
-2.53
-0.71
1.46
3.59
5.44
7.00
8.48
10.10
11.99
14.09
16.19
17.99
19.28
19.99
20.20
20.13
20.02
19.96
19.88
19.52
18.53
16.60
13.68
9.99
5.97
2.18
-1.02
-3.61
-5.99
-8.75
-12.42
-17.18
-22.85
-28.91
-34.90
-40.59
-46.01
-51.47
-57.22
-63.31
-69.41
-75.00
-79.25
-81.23
-79.94
-74.43
-64.16
-49.23
-30.71
-10.49
9.12
26.19
39.64
49.47
56.47
61.61
65.48
68.07
69.08
68.34
66.14
63.25
60.54
58.51
57.09
55.74
53.71
50.57
46.34
41.41
36.33
31.42
26.66
21.76
16.40
10.55
4.58
-0.83
-4.98
-7.45
-8.28
-7.96
-7.18
-6.51
-6.28
-6.51
-6.96
-7.32
-7.12
-5.81
-2.94
1.65
7.59
13.99
19.72
23.80
25.89
26.33
25.89
25.24
24.62
23.73
22.07
19.34
15.66
11.54
7.62
4.36
1.97
0.38
-0.52
-0.79
-0.47
0.37
1.50
2.49
2.83
2.04
-0.11
-3.46
-7.48
-11.45
-14.62
-16.56
-17.23
-16.89
-16.05
-15.08
-14.08
-12.93
-11.40
-9.39
-7.15
-5.16
-3.99
-4.03
-5.30
-7.48
-10.17
-13.00
-15.69
-17.98
-19.50
-19.74
-18.33
-15.23
-10.96
-6.45
-2.74
-0.38
0.68
1.03
1.43
2.30
3.58
4.79
5.43
5.33
4.78
4.27
4.29
4.97
6.10
7.19
7.82
7.83
7.35
6.74
6.23
5.87
5.44
4.52
2.88
0.56
-2.07
-4.46
-6.20
-7.24
-7.89
-8.57
-9.56
-10.77
-11.80
-12.21
-11.82
-10.87
-9.90
-9.51
-10.01
-11.35
-13.20
-15.07
-16.51
-17.20
-16.90
-15.52
-13.11
-9.91
-6.34
-2.99
-0.33
1.41
2.37
2.96
3.63
4.68
6.05
7.44
8.34
8.38
7.46
5.93
4.40
3.48
3.58
4.76
6.78
9.33
12.18
15.18
18.13
20.77
22.74
23.78
23.94
23.60
23.34
23.62
24.51
25.65
26.51
26.65
26.01
24.85
23.65
22.85
22.59
22.67
22.53
21.38
18.55
13.70
7.16
-0.22
-7.18
-12.61
-15.82
-16.76
-15.90
-14.12
-12.54
-12.33
-14.42
-19.04
-25.37
-31.35
-34.40
-32.36
-24.67
-12.85
0.04
10.68
16.89
18.35
16.38
12.70
8.43
3.49
-3.00
-11.87
-23.07
-35.32
-46.53
-54.69
-58.61
-58.33
-54.98
-50.27
-45.83
-42.82
-41.65
-42.06
-43.37
-44.64
-44.77
-42.72
-37.63
-29.11
-17.46
-3.65
10.82
24.37
35.67
43.92
48.92
50.98
50.75
48.99
46.41
43.42
39.99
35.69
29.88
22.21
12.92
2.98
-6.20
-13.21
-17.12
-17.73
-15.39
-10.80
-4.72
2.10
8.94
15.10
19.94
23.04
24.25
23.71
21.73
18.66
14.84
10.60
6.32
2.42
-0.80
-3.23
-4.90
-5.95
-6.45
-6.38
-5.68
-4.43
-3.00
-2.03
-2.19
-3.88
-7.11
-11.42
-16.15
-20.60
-24.30
-26.97
-28.45
-28.58
-27.23
-24.30
-19.99
-14.79
-9.41
-4.55
-0.59
2.53
5.11
7.49
9.76
11.72
13.08
13.58
13.30
12.49
11.48
10.44
9.30
7.92
6.21
4.36
2.73
1.75
1.66
2.42
3.69
5.00
5.93
6.20
5.75
4.66
3.02
0.90
-1.61
-4.46
-7.56
-10.72
-13.76
-16.45
-18.63
-20.21
-21.28
-22.00
-22.59
-23.21
-23.73
-23.90
-23.36
-21.93
-19.79
-17.55
-16.08
-16.23
-18.54
-23.10
-29.67
-37.86
-47.25
-57.48
-67.97
-77.87
-86.01
-91.05
-91.80
-87.50
-78.02
-63.83
-45.92
-25.52
-3.97
17.47
37.59
55.35
69.84
80.40
86.77
89.01
87.74
83.79
78.15
71.72
65.16
58.89
53.08
47.88
43.22
39.05
35.19
31.51
27.86
24.13
20.28
16.44
12.90
10.11
8.55
8.44
9.66
11.72
13.95
15.73
16.73
16.93
16.50
15.62
14.33
12.59
10.33
7.56
4.50
1.39
-1.51
-4.11
-6.40
-8.42
-10.17
-11.55
-12.45
-12.74
-12.42
-11.57
-10.37
-8.99
-7.59
-6.30
-5.20
-4.45
-4.11
-4.14
-4.38
-4.61
-4.59
-4.26
-3.74
-3.28
-3.22
-3.70
-4.72
-6.04
-7.40
-8.47
-9.03
-8.94
-8.08
-6.47
-4.24
-1.66
0.89
3.01
4.44
5.14
5.19
4.86
4.31
3.63
2.85
2.01
1.22
0.63
0.36
0.39
0.54
0.59
0.37
-0.06
-0.50
-0.70
-0.50
0.02
0.62
1.09
1.26
1.15
0.98
0.92
1.14
1.68
2.40
3.14
3.73
3.99
3.80
3.17
2.13
0.78
-0.70
-2.16
-3.32
-3.90
-3.61
-2.33
-0.10
2.70
5.49
7.63
8.68
8.60
7.69
6.44
5.21
4.16
3.20
2.14
0.95
-0.21
-0.95
-0.95
-0.11
1.37
3.04
4.40
5.14
5.17
4.66
3.90
3.03
1.99
0.53
-1.58
-4.37
-7.53
-10.50
-12.62
-13.47
-13.04
-11.66
-9.91
-8.32
-7.23
-6.69
-6.62
-6.92
-7.55
-8.49
-9.63
-10.70
-11.25
-10.84
-9.14
-6.23
-2.53
1.29
4.58
6.96
8.36
8.95
8.92
8.44
7.58
6.38
4.91
3.35
1.93
0.87
0.32
0.37
1.02
2.23
3.84
5.65
7.44
9.10
10.61
12.01
13.30
14.35
14.87
14.60
13.43
11.45
8.98
6.38
3.92
1.77
-0.08
-1.71
-3.20
-4.57
-5.85
-7.02
-8.05
-8.90
-9.54
-9.94
-10.13
-10.08
-9.71
-8.96
-7.78
-6.22
-4.53
-2.97
-1.82
-1.14
-0.77
-0.45
-0.00
0.59
1.10
1.20
0.72
-0.28
-1.46
-2.38
-2.78
-2.67
-2.37
-2.38
-3.00
-4.23
-5.75
-7.11
-7.94
-8.17
-7.97
-7.56
-7.18
-6.90
-6.66
-6.43
-6.22
-6.10
-6.09
-6.10
-5.96
-5.61
-5.12
-4.74
-4.87
-5.77
-7.50
-9.84
-12.38
-14.63
-16.15
-16.56
-15.69
-13.54
-10.33
-6.49
-2.56
1.01
3.98
6.38
8.45
10.34
12.03
13.36
14.00
13.72
12.54
10.68
8.57
6.69
5.43
5.00
5.45
6.65
8.34
10.22
11.99
13.42
14.31
14.48
13.79
12.19
9.80
6.95
4.09
1.61
-0.28
-1.64
-2.74
-3.85
-5.05
-6.21
-7.03
-7.29
-7.03
-6.62
-6.58
-7.37
-9.12
-11.60
-14.22
-16.22
-16.92
-15.96
-13.29
-9.28
-4.53
0.20
4.25
7.11
8.64
9.00
8.51
7.55
6.36
5.05
3.57
1.86
-0.11
-2.31
-4.67
-7.07
-9.38
-11.41
-13.01
-14.05
-14.51
-14.67
-15.04
-16.33
-19.22
-24.21
-31.46
-40.73
-51.34
-62.24
-72.20
-79.94
-84.33
-84.50
-80.07
-71.16
-58.36
-42.71
-25.44
-7.96
8.46
22.71
34.05
42.12
47.01
49.12
49.06
47.61
45.54
43.65
42.61
42.77
44.19
46.49
49.03
51.08
52.10
51.85
50.49
48.26
45.40
42.04
38.18
33.94
29.55
25.40
21.85
19.11
17.16
15.76
14.70
13.87
13.29
13.07
13.26
13.72
14.12
14.05
13.14
11.23
8.41
4.95
1.23
-2.39
-5.65
-8.38
-10.57
-12.20
-13.33
-14.04
-14.36
-14.35
-14.06
-13.58
-13.09
-12.73
-12.64
-12.88
-13.39
-14.03
-14.65
-15.04
-14.97
-14.23
-12.59
-10.04
-6.76
-3.14
0.33
3.20
5.30
6.68
7.53
8.00
8.08
7.64
6.57
4.98
3.15
1.54
0.50
0.19
0.51
1.18
1.91
2.52
2.99
3.38
3.75
4.10
4.35
4.40
4.13
3.50
2.54
1.35
0.10
-1.01
-1.85
-2.39
-2.65
-2.69
-2.50
-2.03
-1.22
-0.06
1.32
2.59
3.38
3.35
2.36
0.51
-1.95
-4.70
-7.41
-9.77
-11.47
-12.13
-11.45
-9.36
-6.13
-2.37
1.13
3.75
5.22
5.72
5.68
5.51
5.31
4.92
4.07
2.67
1.04
-0.36
-0.97
-0.59
0.61
2.14
3.43
4.18
4.43
4.51
4.78
5.36
6.05
6.38
5.93
4.53
2.40
0.02
-2.03
-3.47
-4.31
-4.77
-5.10
-5.32
-5.24
-4.59
-3.26
-1.43
0.36
1.49
1.51
0.30
-1.81
-4.30
-6.67
-8.62
-9.99
-10.72
-10.67
-9.68
-7.74
-5.06
-2.15
0.37
2.08
2.99
3.45
3.95
4.78
5.80
6.60
6.74
6.04
4.74
3.39
2.50
2.35
2.84
3.57
4.25
4.73
5.20
5.95
7.23
9.00
10.91
12.49
13.24
12.94
11.63
9.64
7.33
5.07
3.07
1.42
0.10
-0.99
-1.96
-2.91
-3.84
-4.66
-5.24
-5.44
-5.22
-4.68
-3.99
-3.34
-2.81
-2.37
-1.87
-1.22
-0.31
0.86
2.35
4.21
6.41
8.82
11.04
12.54
12.85
11.80
9.56
6.65
3.68
1.13
-0.81
-2.20
-3.24
-4.03
-4.53
-4.74
-4.73
-4.83
-5.55
-7.49
-10.95
-15.84
-21.54
-27.07
-31.47
-34.11
-34.88
-34.19
-32.71
-31.08
-29.52
-27.75
-25.10
-20.85
-14.66
-6.91
1.24
8.07
11.90
11.76
7.98
2.15
-3.38
-6.58
-6.74
-4.78
-3.03
-4.03
-9.23
-17.97
-27.74
-35.12
-37.22
-32.70
-21.78
-6.47
9.59
21.45
23.58
11.34
-16.78
-57.34
-101.52
-136.79
-151.90
-141.25
-106.96
-57.22
-2.34
49.84
96.47
139.26
182.44
227.82
273.17
313.19
342.55
358.26
360.39
350.91
332.09
306.41
274.43
235.73
190.27
139.82
87.72
37.39
-9.36
-58.03
-107.63
-152.40
-185.60
-204.44
-209.99
-204.90
-191.95
-174.37
-155.51
-136.94
-121.04
-108.05
-98.12
-90.81
-85.07
-79.93
-75.87
-74.46
-76.63
-84.03
-98.79
-121.23
-149.62
-178.84
-196.47
-191.18
-159.66
-108.94
-53.85
-9.19
16.66
23.56
17.87
7.92
-0.64
-7.15
-11.69
-13.08
-8.70
4.68
28.07
58.93
91.11
116.50
125.53
114.02
84.34
42.44
-4.62
-51.59
-95.18
-132.65
-160.88
-176.15
-175.02
-156.64
-125.40
-88.64
-54.09
-26.47
-5.87
11.48
31.01
54.06
83.76
115.11
140.54
152.45
145.88
119.61
75.50
16.93
-52.55
-128.63
-206.14
-276.66
-329.69
-355.85
-350.71
-317.17
-264.71
-205.45
-149.00
-100.24
-57.88
-16.93
28.12
81.01
142.93
212.27
284.80
353.94
410.57
445.42
452.24
429.73
382.94
322.25
259.92
205.68
163.54
130.67
100.42
67.62
31.78
-2.11
-26.20
-34.30
-25.62
-5.14
18.62
37.79
48.77
51.58
48.35
41.16
30.99
18.78
7.10
0.30
-2.64
-2.85
-5.07
-15.92
-39.48
-73.97
-111.39
-140.07
-149.49
-134.89
-98.38
-48.42
4.39
51.28
86.76
108.15
114.21
104.16
78.41
40.69
-1.77
-39.37
-63.44
-69.83
-60.38
-41.43
-20.38
-2.85
8.95
15.26
17.28
15.78
10.94
2.88
-7.69
-19.06
-29.46
-37.87
-44.00
-48.66
-53.32
-59.49
-67.61
-77.01
-85.87
-88.78
-85.96
-79.17
-71.21
-65.26
-64.19
-69.50
-81.10
-95.70
-107.88
-111.42
-100.27
-71.82
-28.87
19.67
61.87
85.36
85.69
64.34
28.50
-10.83
-43.37
-62.81
-68.36
-59.36
-41.09
-17.01
11.42
43.92
79.80
115.56
146.94
167.95
174.66
166.01
144.97
115.61
83.25
53.97
33.55
26.27
31.32
43.39
53.85
55.16
43.01
19.28
-8.78
-32.83
-47.52
-54.90
-61.62
-75.80
-96.63
-122.84
-151.43
-179.79
-207.76
-227.25
-234.97
-231.66
-221.60
-209.42
-198.51
-189.64
-181.71
-172.24
-157.46
-134.94
-103.28
-63.38
-18.84
23.94
58.85
82.31
94.33
97.77
95.25
88.79
79.87
70.29
61.94
56.86
57.54
65.07
78.75
95.69
112.86
128.13
141.57
154.22
167.56
182.73
199.95
218.88
238.42
257.40
275.13
292.27
309.77
329.12
352.08
379.58
410.77
442.51
470.47
487.04
489.03
477.43
456.19
429.59
399.51
364.63
321.89
269.19
207.45
141.34
76.57
17.10
-36.42
-86.41
-136.60
-189.96
-247.72
-309.55
-373.81
-438.52
-501.83
-562.28
-618.88
-671.21
-719.47
-764.57
-808.30
-853.04
-901.53
-955.34
-1013.00
-1068.74
-1113.10
-1135.40
-1127.37
-1086.51
-1016.82
-927.08
-827.31
-725.23
-624.75
-526.60
-430.23
-334.93
-241.23
-150.29
-63.01
20.70
101.79
181.23
259.07
334.29
406.19
473.55
535.11
589.98
638.01
679.89
716.67
749.12
777.63
804.74
832.50
861.99
892.57
922.06
946.87
962.50
963.83
946.26
909.76
855.86
787.38
707.50
620.72
532.47
448.52
372.89
292.41
203.30
109.74
22.23
-49.63
-100.53
-130.75
-143.85
-144.94
-141.64
-137.05
-132.78
-129.79
-131.40
-140.23
-158.35
-185.88
-223.87
-273.30
-332.39
-399.17
-472.11
-551.61
-633.95
-709.74
-763.70
-783.55
-763.85
-707.77
-628.09
-528.14
-422.97
-328.53
-265.73
-230.22
-214.13
-209.62
-214.25
-226.05
-240.31
-251.63
-252.74
-238.48
-207.33
-165.53
-122.21
-84.42
-54.36
-30.11
-9.58
10.06
31.35
57.54
89.94
129.83
177.94
233.29
291.42
342.98
377.15
385.25
364.47
317.73
254.29
187.24
130.03
91.94
75.15
75.56
85.27
96.13
101.81
99.76
91.30
80.76
72.70
69.99
73.54
83.14
98.06
117.37
139.81
164.08
190.06
217.92
248.45
282.97
322.32
365.19
406.93
439.35
453.87
446.36
417.65
373.65
323.15
274.49
233.00
200.17
173.98
151.81
133.24
117.23
102.07
85.88
68.07
51.02
39.78
39.01
36.08
20.72
-14.40
-68.89
-135.30
-203.81
-265.95
-311.90
-343.51
-362.60
-367.84
-358.20
-333.99
-297.27
-252.28
-203.06
-152.57
-103.21
-54.85
-4.59
49.74
108.18
167.27
219.90
256.83
269.30
251.77
206.55
144.88
82.86
35.93
12.76
11.73
22.29
30.13
23.45
-1.46
-39.94
-83.15
-123.00
-155.61
-181.62
-203.95
-225.12
-246.27
-267.10
-286.85
-304.87
-319.83
-328.79
-327.75
-313.20
-284.05
-242.72
-194.19
-143.95
-95.73
-50.35
-5.86
41.24
94.06
153.26
216.08
276.37
326.28
358.83
370.30
361.45
336.84
302.90
265.96
230.79
200.03
174.48
153.26
134.04
113.55
88.35
56.23
17.37
-25.79
-69.58
-110.80
-147.97
-181.69
-214.22
-248.82
-288.43
-333.88
-382.73
-429.04
-464.42
-480.76
-473.49
-443.10
-395.08
-337.53
-277.94
-221.07
-168.60
-120.25
-75.44
-34.26
2.99
36.89
70.14
107.28
152.36
205.76
262.36
311.91
342.24
344.24
315.23
260.13
189.17
113.30
40.85
-23.37
-76.91
-117.98
-144.84
-157.03
-155.88
-143.80
-123.63
-96.98
-63.39
-21.53
28.31
82.39
132.11
166.90
178.74
164.55
127.56
75.89
19.56
-34.77
-79.34
-111.16
-135.75
-158.39
-182.27
-207.24
-229.54
-243.20
-242.54
-224.49
-191.32
-149.85
-108.38
-73.98
-49.83
-34.29
-22.51
-9.50
7.51
27.79
48.64
68.11
85.79
102.96
121.66
143.57
168.86
196.51
225.53
256.16
290.11
328.77
371.30
413.74
449.82
472.31
476.34
461.87
433.87
399.76
365.74
334.23
303.76
271.42
233.71
188.60
136.76
80.79
23.56
-32.91
-87.64
-139.86
-187.52
-229.51
-265.85
-296.74
-317.98
-323.98
-311.51
-282.56
-249.79
-217.93
-188.84
-164.76
-146.19
-135.65
-135.95
-148.56
-172.04
-201.09
-226.20
-233.49
-214.04
-168.58
-108.59
-49.77
-3.86
25.57
42.10
53.27
64.72
77.88
92.47
108.04
126.12
149.69
181.15
219.09
259.11
293.72
314.89
317.79
300.96
267.77
224.88
179.93
139.55
108.38
88.09
77.41
73.20
68.78
57.84
36.49
4.50
-35.08
-77.81
-120.16
-160.61
-199.25
-240.16
-286.71
-339.83
-397.37
-455.08
-508.59
-554.81
-591.80
-598.31
-559.74
-473.09
-350.78
-214.20
-82.64
32.54
127.36
202.71
261.89
305.61
334.99
351.49
357.75
357.77
355.93
354.25
353.31
352.73
349.44
340.91
324.59
299.76
268.34
233.61
198.60
165.47
135.11
105.33
72.74
36.81
-3.40
-46.84
-90.68
-131.51
-166.39
-193.38
-213.03
-226.97
-241.09
-261.51
-291.72
-332.16
-380.93
-435.22
-491.98
-549.75
-583.07
-575.43
-523.93
-440.57
-344.49
-251.83
-171.69
-106.65
-56.73
-19.17
7.55
27.48
47.16
73.24
109.74
152.22
200.24
251.51
303.34
349.82
384.52
401.69
397.85
373.90
335.78
293.89
258.40
236.32
226.90
223.73
220.21
210.61
193.11
170.18
147.27
129.07
118.07
112.78
109.56
103.86
91.23
68.52
33.88
-12.05
-65.83
-119.98
-164.39
-189.06
-189.01
-167.81
-136.98
-111.74
-104.35
-119.15
-151.37
-190.41
-224.97
-248.53
-260.92
-266.58
-271.45
-280.41
-296.72
-322.09
-356.75
-397.44
-438.48
-472.07
-491.27
-492.55
-476.55
-447.42
-410.74
-371.55
-330.81
-288.24
-242.63
-194.36
-145.45
-98.13
-53.25
-10.15
32.39
78.65
130.91
190.79
257.33
327.76
399.57
471.89
545.55
607.88
646.82
652.26
625.77
577.67
519.48
458.93
399.31
341.28
284.25
240.83
211.43
196.41
194.93
204.57
221.64
241.55
258.86
253.26
218.40
156.39
79.91
5.52
-52.98
-89.07
-104.47
-106.21
-105.12
-105.90
-111.62
-122.56
-138.97
-161.47
-190.07
-220.69
-244.96
-255.80
-249.13
-228.74
-202.53
-178.93
-163.59
-157.96
-159.91
-166.18
-174.71
-183.17
-190.53
-195.49
-197.16
-194.00
-185.86
-173.99
-160.59
-148.38
-138.65
-131.57
-126.15
-120.44
-112.90
-103.17
-91.97
-80.62
-70.51
-61.71
-52.55
-43.65
-33.64
-21.14
-5.75
11.72
29.68
45.94
58.50
66.14
68.49
66.81
63.53
62.23
67.16
81.79
106.84
138.82
170.54
193.17
199.86
187.61
157.73
114.68
64.23
12.09
-36.57
-77.08
-105.73
-120.55
-122.77
-117.14
-110.43
-108.85
-115.70
-130.49
-149.83
-169.57
-186.20
-197.86
-204.30
-206.06
-204.00
-199.04
-192.12
-184.12
-175.82
-167.76
-160.19
-153.18
-146.76
-140.85
-135.19
-129.29
-122.42
-113.71
-102.48
-88.54
-72.34
-54.92
-37.56
-21.30
-6.57
6.97
20.24
34.12
48.99
64.35
79.16
91.98
101.97
109.26
114.99
121.21
130.53
145.57
168.11
198.09
232.55
265.47
288.90
295.47
281.64
249.92
208.83
170.04
144.04
136.04
144.56
163.04
183.49
200.19
211.50
219.32
226.90
236.87
250.44
267.78
288.53
311.90
336.13
357.68
371.69
373.58
360.77
334.05
297.22
255.26
212.23
170.02
128.61
87.49
47.14
9.38
-23.49
-50.45
-72.87
-94.28
-118.58
-148.01
-181.77
-215.98
-245.23
-264.43
-270.16
-261.17
-238.04
-202.53
-157.27
-105.39
-50.44
3.95
54.49
98.79
135.43
163.92
184.38
197.30
203.34
203.30
197.89
187.54
172.54
153.29
130.60
105.87
80.94
57.65
37.34
20.54
7.05
-3.80
-12.71
-20.14
-26.29
-31.28
-35.17
-38.07
-40.10
-41.35
-41.91
-42.02
-42.06
-42.43
-43.45
-45.10
-46.99
-48.46
-48.93
-48.06
-45.99
-43.26
-40.65
-38.91
-38.46
-39.24
-40.76
-42.31
-43.18
-42.86
-41.08
-37.80
-33.12
-27.26
-20.64
-13.94
-7.98
-3.44
-0.52
1.16
2.53
4.51
7.58
11.55
15.58
18.59
19.74
18.71
15.80
11.84
7.90
5.11
4.41
6.37
11.17
18.54
27.86
38.27
48.76
58.23
65.63
70.24
71.87
70.97
68.55
65.72
63.23
61.10
58.69
55.10
49.82
42.97
35.35
27.98
21.58
16.26
11.60
6.93
1.81
-3.73
-9.24
-14.11
-17.93
-20.64
-22.61
-24.34
-26.25
-28.54
-31.10
-33.69
-36.02
-37.81
-38.94
-39.35
-39.04
-38.09
-36.64
-34.90
-33.19
-31.79
-30.92
-30.69
-31.04
-31.77
-32.57
-33.11
-33.10
-32.40
-31.03
-29.21
-27.29
-25.62
-24.46
-23.89
-23.85
-24.11
-24.53
-25.01
-25.52
-26.03
-26.43
-26.54
-26.28
-25.64
-24.77
-23.95
-23.35
-23.02
-22.88
-22.80
-22.72
-22.69
-22.79
-23.03
-23.33
-23.46
-23.30
-22.80
-22.12
-21.45
-20.98
-20.78
-20.75
-20.71
-20.47
-19.90
-18.99
-17.81
-16.50
-15.23
-14.14
-13.33
-12.91
-12.87
-13.16
-13.65
-14.09
-14.22
-13.78
-12.61
-10.74
-8.33
-5.68
-3.09
-0.81
1.02
2.34
3.23
3.77
4.04
4.10
3.98
3.72
3.31
2.77
2.14
1.52
1.00
0.66
0.48
0.41
0.34
0.18
-0.04
-0.22
-0.18
0.26
1.20
2.65
4.54
6.78
9.28
11.92
14.54
16.90
18.77
20.00
20.64
20.90
21.14
21.72
22.92
24.71
26.85
28.87
30.25
30.64
29.95
28.43
26.55
24.91
23.98
24.01
25.00
26.69
28.70
30.51
31.63
31.76
30.88
29.26
27.31
25.28
23.08
20.32
16.33
10.52
2.44
-8.15
-21.40
-37.21
-55.05
-73.82
-91.80
-107.24
-118.88
-126.46
-130.75
-133.01
-134.18
-134.40
-132.92
-128.65
-120.93
-109.89
-96.54
-82.37
-68.95
-57.62
-49.42
-44.97
-44.36
-46.98
-51.18
-54.24
-52.68
-43.24
-24.10
4.12
38.22
73.24
103.68
125.25
136.06
136.96
130.69
120.53
109.14
98.06
87.93
78.60
69.67
60.92
52.62
45.32
39.57
35.95
35.18
37.90
43.73
50.77
55.62
54.43
44.01
22.84
-8.05
-44.85
-79.37
-102.02
-106.72
-94.13
-69.81
-40.45
-11.18
15.45
39.09
60.65
81.09
100.83
119.07
134.63
146.57
153.41
154.16
148.78
138.57
125.37
110.74
94.80
76.85
55.66
29.81
-1.67
-39.09
-82.60
-132.78
-184.98
-235.42
-279.64
-313.60
-335.98
-349.78
-362.02
-380.59
-409.60
-445.75
-478.85
-495.04
-483.65
-442.73
-380.05
-309.16
-243.06
-189.00
-147.30
-114.40
-86.25
-61.20
-40.16
-24.88
-15.58
-10.24
-5.59
1.09
10.35
21.16
31.75
40.95
48.58
55.01
60.49
64.73
66.94
66.08
61.55
53.43
42.81
31.59
22.20
16.75
16.29
20.27
26.59
32.43
35.43
34.65
30.84
25.82
21.39
18.47
17.02
16.59
17.16
19.49
24.80
33.94
46.64
61.26
75.46
87.28
96.21
103.27
110.33
118.66
127.72
135.17
137.95
134.11
124.13
111.10
99.30
92.18
90.52
92.01
92.49
88.02
76.94
60.80
43.67
30.28
23.76
24.31
29.32
34.91
37.95
37.62
35.48
34.29
36.25
41.77
49.31
56.30
60.39
60.33
56.22
49.33
41.56
34.94
30.89
29.62
29.78
29.00
25.09
17.48
7.89
-0.49
-4.65
-3.70
0.48
4.21
4.15
-0.78
-8.85
-16.72
-21.40
-21.87
-19.49
-16.93
-16.47
-18.59
-21.55
-22.23
-17.99
-7.95
6.30
21.63
34.88
44.30
49.93
53.07
55.10
56.64
57.33
56.52
53.94
49.90
45.10
40.04
34.95
29.88
24.87
19.74
13.93
6.41
-3.72
-16.50
-30.49
-43.11
-51.67
-54.84
-53.35
-49.76
-47.35
-48.89
-56.03
-69.02
-86.60
-105.87
-122.37
-131.08
-128.58
-115.23
-95.93
-78.42
-69.40
-70.52
-76.98
-79.74
-70.64
-47.31
-15.01
16.08
36.35
41.66
34.92
23.89
16.78
18.62
30.13
48.63
69.91
89.37
102.57
105.82
97.73
80.75
61.19
46.97
43.74
51.71
65.40
76.74
79.76
73.71
62.73
52.36
45.59
41.15
35.06
24.13
8.83
-6.54
-16.43
-17.42
-10.29
0.38
8.75
10.69
5.62
-3.79
-13.15
-18.71
-18.87
-14.54
-8.37
-3.42
-1.75
-3.60
-7.51
-11.06
-12.26
-10.60
-7.48
-5.70
-8.10
-16.12
-28.82
-42.94
-53.63
-55.99
-46.39
-23.70
10.23
50.81
91.77
126.83
151.34
163.37
163.81
155.46
141.63
125.00
107.18
88.99
71.15
54.57
40.21
28.50
18.92
10.23
1.09
-8.95
-19.19
-28.11
-34.40
-37.94
-40.21
-43.58
-49.93
-59.43
-70.15
-79.00
-83.16
-81.59
-75.18
-66.30
-57.38
-49.87
-43.87
-38.56
-33.02
-26.88
-20.52
-14.69
-9.97
-6.42
-3.47
-0.33
3.53
8.01
12.41
16.02
18.48
20.00
21.17
22.56
24.29
26.14
27.65
28.55
29.06
29.64
30.68
32.35
34.57
37.08
39.59
41.62
42.32
40.94
36.70
29.18
18.83
7.19
-3.65
-11.76
-16.57
-19.21
-20.82
-22.81
-25.88
-29.68
-33.07
-34.58
-33.02
-27.92
-19.39
-5.31
15.19
40.05
63.43
77.31
75.52
57.58
29.97
3.75
-5.59
12.41
59.49
128.60
207.79
285.60
354.51
411.14
454.48
490.22
524.23
561.48
604.81
655.18
712.78
777.87
850.31
891.20
868.87
764.98
585.22
357.14
116.71
-104.85
-287.18
-422.09
-512.50
-563.69
-584.66
-584.62
-571.04
-548.78
-520.35
-487.22
-451.61
-417.18
-383.85
-351.30
-319.53
-290.04
-265.66
-249.19
-241.73
-242.21
-248.05
-253.42
-253.30
-244.65
-227.10
-202.47
-173.49
-142.86
-113.30
-87.68
-67.22
-52.33
-42.34
-35.68
-30.38
-24.82
-18.07
-10.28
-2.22
5.63
13.27
21.11
29.40
38.05
46.62
54.80
62.45
69.68
76.02
80.53
81.90
79.03
71.81
61.61
51.21
43.88
42.40
47.75
59.45
75.80
94.44
112.88
128.75
139.77
143.70
141.95
135.55
126.88
119.40
116.11
118.00
123.15
127.36
126.01
116.30
98.09
74.21
48.86
25.54
6.00
-9.61
-21.81
-30.96
-36.82
-39.41
-39.18
-37.31
-35.54
-35.48
-37.99
-42.85
-49.02
-55.28
-61.07
-66.67
-73.21
-82.25
-95.08
-112.16
-132.87
-155.55
-178.11
-199.00
-217.44
-234.25
-251.73
-272.83
-299.64
-331.82
-365.77
-395.34
-414.16
-417.83
-405.80
-381.14
-348.86
-313.68
-278.77
-246.06
-217.05
-193.64
-176.96
-166.79
-160.62
-154.50
-145.17
-131.79
-116.36
-101.72
-89.57
-77.30
-60.81
-36.52
-4.05
32.81
67.98
95.97
114.80
125.42
133.30
141.87
152.08
162.29
169.46
170.97
165.27
152.63
132.64
108.91
82.41
53.54
22.12
-12.64
-51.34
-94.26
-138.97
-182.03
-212.60
-222.76
-207.73
-168.14
-110.48
-44.73
17.72
82.51
126.22
153.71
169.01
176.40
179.65
182.13
187.95
199.99
220.69
247.85
280.45
311.30
332.12
337.09
322.33
296.36
265.65
237.07
212.87
194.77
178.57
159.49
135.63
109.60
87.92
74.44
70.80
73.31
76.36
70.97
50.24
13.13
-35.39
-86.58
-135.69
-179.46
-216.86
-247.13
-271.49
-291.62
-308.84
-324.06
-337.91
-354.52
-375.12
-397.19
-415.26
-424.00
-419.23
-398.24
-360.50
-286.65
-178.60
-58.37
45.62
116.37
152.87
163.62
159.62
150.04
140.97
132.75
126.09
122.98
124.97
131.80
141.66
152.90
165.24
177.79
189.38
201.04
215.58
235.80
262.44
293.40
323.84
347.17
346.79
311.56
245.50
167.53
99.96
56.32
37.99
37.81
45.97
55.30
63.34
70.17
75.61
77.24
70.73
51.72
17.83
-27.01
-75.22
-117.64
-147.86
-164.13
-169.29
-168.57
-166.87
-166.89
-168.25
-169.35
-167.35
-160.46
-148.96
-135.49
-123.74
-116.55
-114.76
-117.02
-121.97
-127.94
-133.11
-135.09
-130.91
-117.61
-93.69
-62.74
-26.73
9.76
42.65
70.10
92.95
112.52
128.63
138.49
137.35
122.11
92.31
52.15
9.73
-25.44
-45.67
-46.88
-29.43
1.73
40.63
81.40
120.42
156.09
187.33
211.00
222.25
216.18
186.43
134.49
69.41
5.55
-43.15
-68.12
-70.27
-57.45
-40.08
-28.40
-27.71
-38.76
-59.13
-85.58
-114.72
-144.51
-172.37
-188.33
-184.19
-158.48
-119.29
-78.75
-48.62
-26.64
-7.59
12.97
38.62
66.07
86.41
92.58
82.61
60.08
34.85
18.90
22.50
49.07
91.09
133.52
160.53
162.12
137.90
96.02
47.07
-0.71
-44.35
-86.45
-131.18
-180.16
-230.96
-277.62
-313.25
-333.22
-336.27
-324.44
-302.30
-275.03
-246.67
-219.61
-194.84
-172.68
-153.74
-138.82
-128.24
-121.13
-114.83
-105.01
-87.10
-58.04
-17.39
32.34
86.77
141.55
194.05
243.82
292.14
340.28
387.85
432.00
467.57
488.54
489.75
468.67
426.35
367.50
299.57
231.27
170.68
123.53
92.11
74.87
67.30
63.23
56.73
43.56
21.75
-8.85
-47.66
-93.86
-146.21
-201.66
-254.36
-295.92
-317.57
-313.20
-281.95
-228.96
-163.74
-97.17
-38.52
6.40
35.64
50.37
53.89
50.55
44.55
39.06
35.45
33.31
31.12
27.44
21.76
14.45
6.46
-1.23
-8.00
-13.56
-17.81
-20.95
-23.52
-26.03
-28.85
-31.81
-34.10
-34.67
-32.74
-28.26
-22.06
-15.57
-10.21
-6.90
-5.57
-5.17
-3.74
0.75
9.55
22.35
37.02
50.40
59.45
62.72
60.87
56.26
51.67
48.93
48.29
48.62
48.31
45.97
41.14
34.03
25.25
15.52
5.59
-3.67
-11.21
-15.94
-17.13
-14.62
-9.06
-1.88
5.03
9.82
11.19
8.72
2.95
-5.04
-13.87
-22.33
-29.48
-34.68
-37.58
-38.35
-37.81
-37.26
-38.07
-40.95
-45.50
-50.34
-53.74
-54.57
-52.84
-49.52
-45.80
-42.30
-38.69
-34.05
-27.60
-19.41
-10.36
-1.70
5.60
11.24
15.39
18.39
20.19
20.38
18.37
13.87
7.33
0.00
-6.24
-9.49
-8.43
-3.14
4.75
12.34
16.45
15.02
7.99
-2.40
-12.61
-19.18
-20.10
-15.35
-6.57
4.03
14.60
24.14
32.56
40.53
49.49
61.55
79.29
104.64
137.45
174.48
209.47
234.95
245.04
237.91
216.72
188.42
160.82
139.53
126.38
119.56
115.56
111.40
106.20
101.46
100.12
105.15
118.13
138.36
162.83
186.95
205.85
215.87
215.75
206.84
192.43
176.32
161.76
150.63
143.63
140.53
140.38
141.56
141.73
138.10
128.29
111.32
88.19
61.95
36.74
16.42
3.65
-0.63
2.86
12.37
25.72
40.78
55.86
69.83
82.11
92.53
101.06
107.63
112.12
114.33
114.10
111.51
106.92
100.97
94.44
88.07
82.38
77.68
73.91
70.79
67.90
64.84
61.33
57.26
52.67
47.71
42.54
37.26
31.83
26.18
20.16
13.69
6.82
-0.25
-7.22
-13.75
-19.61
-24.79
-29.40
-33.82
-38.38
-43.30
-48.61
-54.13
-59.59
-64.79
-69.83
-75.03
-80.99
-88.28
-97.16
-107.45
-118.51
-129.51
-139.78
-149.18
-158.20
-167.81
-179.09
-192.60
-208.18
-224.93
-241.71
-257.59
-272.40
-286.75
-301.85
-319.01
-339.24
-363.00
-389.93
-418.67
-446.82
-471.19
-488.45
-496.14
-493.52
-481.84
-463.96
-443.12
-421.57
-399.68
-375.72
-346.78
-310.38
-266.18
-216.76
-167.40
-124.21
-91.83
-71.75
-61.99
-58.53
-57.41
-56.46
-55.36
-54.53
-53.66
-51.22
-45.36
-35.74
-24.57
-16.10
-14.17
-19.60
-28.96
-35.85
-34.05
-21.02
0.55
24.02
41.98
49.82
47.48
38.73
28.68
21.10
16.82
14.39
11.80
8.19
4.27
1.28
-0.49
-2.16
-5.18
-9.60
-12.85
-10.52
1.10
22.31
48.96
73.99
90.96
97.35
95.50
90.69
87.47
86.71
85.34
78.77
64.16
42.64
18.87
-1.49
-14.58
-19.80
-19.27
-15.82
-11.30
-5.90
1.03
9.42
17.70
23.00
22.53
15.01
1.61
-14.22
-28.19
-37.21
-40.69
-40.79
-40.72
-42.77
-46.88
-50.91
-52.31
-49.93
-44.50
-37.59
-30.00
-21.06
-9.55
4.63
19.51
31.88
39.39
42.03
41.97
41.61
41.48
39.79
34.23
24.32
12.54
3.31
0.31
4.16
12.00
19.20
21.64
17.68
8.39
-3.50
-14.98
-23.99
-29.82
-32.99
-34.71
-36.35
-38.96
-42.83
-47.23
-50.40
-50.10
-44.63
-34.27
-22.15
-13.51
-13.72
-25.26
-45.54
-67.06
-79.99
-76.11
-51.80
-9.31
44.06
98.23
142.82
169.68
175.23
161.75
136.99
111.68
95.01
90.17
92.81
92.62
78.75
46.20
-1.17
-51.92
-92.30
-112.48
-110.12
-88.98
-55.48
-14.47
31.91
82.59
133.83
177.56
202.82
199.93
166.19
106.50
31.83
-45.18
-114.20
-169.00
-206.60
-225.69
-226.80
-209.60
-177.03
-134.14
-86.99
-40.49
2.51
41.56
77.78
110.94
144.24
177.45
208.72
234.51
250.69
253.71
242.25
217.86
181.00
138.37
91.63
40.69
-14.65
-71.67
-124.30
-164.15
-183.92
-184.79
-166.04
-136.02
-104.10
-77.08
-54.80
-32.68
-4.69
56.42
116.81
172.87
214.05
232.48
225.29
199.82
166.49
135.67
113.72
97.22
86.05
74.05
56.27
28.10
-8.20
-51.93
-101.85
-155.46
-210.95
-258.13
-289.53
-299.71
-290.75
-263.71
-226.49
-187.58
-152.96
-126.39
-103.86
-81.31
-36.82
6.58
50.52
90.42
121.14
139.18
143.10
136.29
122.55
104.37
78.61
46.19
5.08
-43.22
-92.32
-132.66
-154.29
-152.11
-127.85
-91.51
-50.40
-12.44
18.50
42.40
60.68
74.07
82.48
86.27
86.28
88.80
99.38
120.59
149.45
177.78
195.27
193.95
171.08
128.29
73.10
15.19
-35.73
-71.72
-88.11
-84.43
-64.27
-34.30
-3.31
22.58
41.94
57.75
75.49
100.20
130.79
161.29
189.11
209.06
212.00
194.09
158.24
114.15
75.45
54.41
57.56
82.72
118.73
151.02
167.73
162.73
136.39
93.44
39.67
-20.34
-83.96
-150.13
-216.35
-276.47
-322.05
-345.00
-340.92
-311.34
-263.26
-206.47
-150.51
-101.36
-60.29
-25.84
4.00
30.02
51.71
68.69
82.21
95.64
113.70
140.50
176.73
218.41
257.39
284.36
292.27
279.15
248.28
206.46
161.05
117.12
76.30
37.22
-2.80
-45.62
-90.82
-135.26
-173.86
-201.07
-212.63
-206.56
-183.30
-144.73
-93.26
-32.21
33.15
94.48
140.65
160.30
146.03
98.27
26.84
-51.11
-116.08
-152.36
-152.94
-121.48
-70.79
-18.13
20.78
36.96
30.50
9.33
-14.98
-32.31
-37.70
-32.03
-19.85
-6.26
5.61
15.15
23.03
29.45
32.85
30.55
20.65
4.03
-14.69
-28.20
-29.34
-14.47
14.20
48.91
79.23
96.19
96.06
81.34
59.03
36.94
20.07
9.09
1.15
-7.48
-18.90
-32.41
-45.32
-54.97
-60.35
-62.46
-62.91
-62.21
-58.95
-50.68
-36.08
-16.82
2.18
14.79
16.85
8.62
-5.13
-17.60
-23.62
-22.44
-17.86
-15.71
-20.21
-31.48
-45.39
-55.77
-57.66
-49.68
-34.45
-16.89
-1.74
8.60
14.54
18.31
22.15
26.80
31.15
33.05
30.54
23.14
12.32
0.88
-8.04
-12.22
-11.06
-5.61
1.99
9.47
15.25
18.58
19.16
16.54
10.06
-0.47
-13.47
-24.68
-27.98
-17.67
8.31
46.18
86.93
119.56
135.37
131.30
110.38
79.35
45.14
12.41
-16.82
-41.30
-58.68
-64.97
-56.01
-29.98
10.59
58.74
105.04
140.65
160.11
162.59
151.66
133.84
116.50
105.77
105.04
114.12
129.25
144.31
152.40
147.77
127.33
91.37
43.42
-10.69
-64.30
-111.76
-149.54
-176.96
-195.44
-207.09
-213.13
-212.73
-203.12
-180.69
-142.75
-89.49
-25.09
42.27
101.63
141.57
153.01
132.04
81.71
12.22
-61.11
-121.94
-157.30
-161.24
-135.96
-90.67
-38.43
7.65
37.61
46.61
35.31
9.03
-24.00
-54.66
-74.92
-79.84
-69.09
-47.50
-24.13
-9.35
-11.05
-31.37
-65.20
-101.69
-127.93
-133.31
-112.90
-68.37
-6.91
61.15
124.55
172.99
198.33
195.50
163.45
105.83
31.20
-48.00
-117.76
-166.02
-186.26
-179.60
-154.39
-122.58
-94.61
-74.88
-60.47
-43.96
-18.66
16.99
58.38
97.62
128.23
148.15
159.37
165.06
166.37
161.47
147.21
121.94
87.37
48.23
10.13
-22.53
-47.47
-63.93
-71.72
-70.52
-60.96
-44.94
-25.77
-7.16
8.14
19.08
25.78
28.32
25.96
17.04
0.52
-22.68
-49.14
-73.83
-92.00
-101.16
-101.88
-96.90
-89.99
-83.20
-75.98
-66.10
-51.61
-32.98
-14.01
-0.50
3.48
-3.48
-16.60
-27.12
-26.31
-9.58
21.10
58.11
91.67
115.67
125.81
124.49
117.17
109.37
104.45
102.87
102.78
101.31
97.93
87.47
67.88
38.20
-0.50
-44.31
-86.61
-119.14
-134.79
-126.52
-98.53
-55.96
-6.03
44.88
93.40
139.53
184.74
209.36
234.85
252.29
255.68
241.18
208.68
161.34
103.66
39.91
-26.45
-87.95
-141.39
-178.37
-190.94
-175.13
-133.22
-73.56
-7.29
54.61
107.62
146.57
172.03
186.21
191.71
191.01
186.22
179.24
169.40
156.88
138.19
112.16
78.95
40.15
-2.06
-46.23
-91.32
-139.60
-190.99
-244.41
-294.48
-333.11
-352.10
-346.50
-316.98
-268.54
-212.32
-157.19
-108.62
-66.99
-29.30
8.57
49.52
85.28
123.38
157.52
182.77
195.71
195.55
183.80
164.07
140.61
116.31
93.22
67.70
36.94
-0.14
-41.66
-83.21
-118.93
-143.85
-157.96
-161.59
-160.91
-162.09
-168.75
-177.78
-184.75
-186.79
-184.11
-179.37
-174.72
-171.83
-167.15
-154.70
-129.56
-91.20
-43.82
5.70
50.42
86.50
112.78
133.97
157.04
188.08
229.94
282.11
341.47
403.09
460.78
493.78
485.22
429.18
336.13
228.96
131.53
58.72
13.75
-8.93
-18.41
-20.29
-15.22
-3.58
12.67
28.78
38.41
35.98
18.41
-14.36
-58.10
-104.43
-145.61
-177.10
-198.57
-212.52
-222.38
-230.91
-239.39
-246.27
-248.91
-245.46
-235.89
-222.14
-207.33
-194.54
-185.81
-181.91
-181.87
-184.35
-188.45
-193.12
-196.28
-194.32
-183.06
-159.89
-125.88
-86.04
-47.84
-18.42
-1.72
2.73
-1.21
-8.73
-16.31
-22.57
-27.54
-31.79
-34.41
-34.09
-30.07
-22.80
-13.91
-5.47
0.66
3.85
4.81
5.19
6.72
10.51
16.68
24.65
33.29
41.53
48.68
54.49
59.17
62.69
64.60
63.96
60.03
52.11
40.02
24.08
5.11
-15.34
-35.87
-55.20
-72.30
-85.93
-94.91
-98.37
-96.02
-88.13
-74.61
-55.70
-31.35
-4.23
24.43
54.58
86.50
120.17
155.13
191.73
229.31
266.45
301.22
331.26
355.19
372.54
384.07
392.09
400.82
412.09
423.65
429.21
420.21
391.05
341.63
277.74
201.01
120.58
47.02
-11.93
-47.92
-65.20
-70.60
-70.23
-71.38
-79.02
-94.45
-116.46
-140.08
-156.72
-157.22
-133.91
-85.71
-20.86
46.09
100.42
131.31
135.90
119.66
92.83
66.36
50.89
50.27
61.30
80.83
105.52
132.49
158.97
181.49
196.66
201.76
195.02
177.01
150.82
120.19
88.38
57.29
27.12
-2.76
-33.13
-64.75
-97.51
-130.35
-162.25
-192.67
-221.77
-250.19
-278.73
-307.95
-338.17
-369.30
-401.01
-433.32
-466.73
-502.04
-539.67
-578.75
-616.31
-647.28
-665.36
-664.75
-642.32
-598.91
-539.13
-469.90
-398.20
-329.28
-265.82
-208.43
-156.59
-109.41
-66.02
-25.63
12.38
48.11
80.87
109.26
131.60
146.69
154.37
155.49
151.75
145.30
138.69
134.73
136.39
146.08
164.75
190.98
220.84
248.63
268.38
275.52
268.37
248.48
220.27
189.36
160.67
136.70
117.05
99.10
79.65
56.58
29.74
0.59
-28.82
-56.82
-82.59
-105.89
-126.47
-143.88
-157.52
-167.06
-172.56
-174.34
-172.49
-166.52
-155.41
-137.99
-113.39
-81.53
-43.29
-0.80
42.57
82.43
114.18
134.20
141.10
136.45
124.32
109.96
98.03
91.25
89.95
92.66
97.34
102.47
107.69
113.83
122.18
133.73
148.39
164.70
180.23
192.26
198.87
199.55
195.12
187.25
177.45
166.52
154.45
141.00
126.36
111.34
97.11
84.44
73.23
62.41
50.63
37.03
21.87
6.59
-6.72
-16.18
-20.81
-20.86
-17.60
-12.88
-8.53
-5.86
-5.34
-6.50
-8.22
-9.19
-8.60
-6.52
-4.14
-3.22
-5.42
-11.53
-21.08
-32.55
-43.86
-53.02
-58.61
-60.09
-57.85
-53.05
-47.54
-43.27
-41.71
-42.95
-45.47
-46.54
-43.41
-34.88
-22.17
-8.70
1.32
4.60
-0.17
-12.29
-29.84
-50.54
-72.15
-92.08
-107.32
-114.64
-111.78
-98.45
-76.63
-49.55
-19.76
12.31
48.63
91.90
143.25
200.32
256.86
304.26
334.23
341.36
324.83
288.45
239.27
185.50
134.47
91.09
57.38
32.96
15.92
4.18
-3.66
-8.01
-8.46
-4.24
5.18
19.85
39.12
61.60
85.39
108.49
129.27
146.69
160.24
169.21
172.34
167.87
154.31
131.52
101.46
67.57
33.10
-0.54
-34.28
-69.65
-106.17
-139.39
-161.54
-164.70
-145.38
-107.20
-60.67
-19.39
4.97
6.47
-14.36
-52.53
-101.43
-154.27
-204.05
-242.74
-262.27
-257.30
-228.97
-186.65
-146.18
-124.55
-133.28
-173.41
-234.78
-300.23
-352.38
-380.26
-382.65
-366.85
-344.21
-324.73
-313.32
-309.21
-307.95
-304.46
-295.64
-280.78
-260.59
-235.58
-205.34
-169.22
-127.60
-82.83
-38.70
0.80
32.96
57.35
75.78
91.66
109.04
131.93
163.36
204.41
253.25
304.60
350.41
381.61
390.91
374.99
335.37
277.29
207.76
133.78
61.76
-2.16
-51.98
-82.62
-91.71
-81.14
-57.14
-28.53
-3.56
12.48
17.99
13.79
1.35
-18.45
-44.90
-76.05
-107.72
-133.68
-147.62
-145.53
-127.44
-97.54
-62.50
-28.66
0.18
23.67
44.04
63.81
83.70
101.73
114.14
117.55
111.21
98.10
83.97
75.14
75.61
85.25
100.01
113.74
121.16
119.95
111.48
99.58
88.56
81.16
77.64
76.05
73.15
65.45
50.17
25.83
-7.05
-45.44
-84.06
-116.41
-136.77
-142.23
-133.66
-115.19
-92.16
-68.94
-47.71
-28.52
-10.35
7.71
25.80
43.32
59.28
72.41
81.35
84.72
81.44
71.23
54.91
34.37
12.19
-8.84
-26.22
-37.89
-42.51
-39.70
-30.32
-16.60
-1.75
10.59
17.45
17.36
10.75
-0.26
-12.53
-22.99
-29.34
-30.37
-26.00
-16.99
-4.85
8.24
19.65
26.92
28.61
24.98
18.06
10.89
6.22
5.31
7.59
11.39
15.08
17.97
20.37
22.80
25.17
26.42
24.98
19.71
10.77
-0.22
-10.83
-18.75
-22.71
-22.70
-19.69
-15.06
-10.18
-6.03
-3.20
-1.91
-1.99
-3.02
-4.46
-5.90
-7.28
-8.90
-11.21
-14.47
-18.59
-23.01
-27.04
-29.95
-31.05
-29.61
-24.99
-16.87
-5.73
6.89
18.64
27.10
30.88
30.09
26.43
22.27
19.60
19.13
20.35
22.09
23.39
24.13
