1495624128.00
64.000000
-0.00
-0.00
-0.00
-0.00
-0.00
-0.00
-0.00
-0.00
-0.00
-0.00
0.00
0.01
0.01
-0.00
-0.03
-0.05
-0.05
0.00
0.13
0.36
0.66
1.01
1.37
1.72
2.06
2.40
2.79
3.24
3.80
4.42
5.06
5.66
6.20
6.68
7.15
7.68
8.31
9.14
10.09
11.04
11.88
12.56
13.14
13.76
14.65
15.96
17.91
20.32
22.90
25.38
27.58
29.57
31.68
34.32
37.81
42.54
48.15
54.10
59.83
64.97
69.58
74.14
79.34
85.71
93.76
103.00
112.62
121.73
129.77
136.75
143.30
150.75
157.77
166.64
177.95
191.79
206.97
220.57
228.25
225.36
208.53
176.87
132.76
80.05
23.07
-34.94
-92.44
-149.16
-205.23
-260.37
-313.74
-363.87
-409.83
-450.91
-486.50
-515.74
-537.23
-549.22
-549.96
-538.37
-514.20
-478.67
-433.88
-382.46
-327.03
-269.85
-212.63
-156.63
-102.89
-52.30
-5.87
35.51
71.19
100.92
124.91
143.69
157.99
168.49
175.77
180.17
181.93
181.29
178.57
174.17
168.56
162.15
155.25
148.01
140.48
132.67
124.63
116.50
108.50
100.83
93.60
86.76
80.12
73.44
66.56
59.53
52.62
46.24
40.71
36.15
32.32
28.70
24.73
20.09
14.84
9.51
4.85
1.47
-0.44
-1.31
-2.01
-3.50
-6.31
-10.34
-14.77
-18.51
-20.73
-21.20
-20.40
-19.29
-18.77
-19.47
-21.79
-26.08
-32.28
-39.38
-44.83
-44.80
-35.66
-16.06
11.65
41.80
67.63
84.19
90.23
88.10
81.69
74.13
66.45
58.01
48.09
37.09
26.67
18.70
13.96
11.66
10.08
7.75
4.20
0.23
-2.81
-3.94
-3.06
-0.99
1.04
1.91
1.22
-0.81
-3.42
-5.73
-7.02
-6.95
-5.64
-3.68
-1.92
-1.18
-1.97
-4.20
-7.29
-10.33
-12.35
-12.60
-10.75
-6.90
-1.67
3.92
8.66
11.54
12.14
10.86
8.75
7.08
6.88
8.55
11.78
15.52
18.23
18.15
13.81
4.60
-8.62
-23.35
-36.04
-43.25
-43.00
-35.54
-23.28
-9.67
2.07
10.09
14.05
14.71
13.23
10.66
7.59
4.28
0.88
-2.36
-5.02
-6.58
-6.64
-5.16
-2.58
0.20
2.21
2.78
1.94
0.46
-0.61
-0.44
1.02
3.07
4.60
4.75
3.42
1.26
-0.69
-1.58
-1.22
-0.06
1.14
1.83
1.94
1.86
2.11
3.01
4.51
6.15
7.40
8.01
8.05
7.89
7.97
8.59
9.73
11.14
12.29
12.74
12.49
12.05
12.37
14.49
18.95
25.48
32.88
39.23
42.52
41.32
35.19
24.65
11.00
-4.22
-19.74
-33.82
-45.32
-54.02
-60.69
-66.79
-73.78
-82.36
-91.97
-100.78
-106.13
-105.54
-97.54
-82.09
-60.58
-35.21
-8.20
18.77
44.72
69.03
90.90
109.22
122.80
130.95
133.97
133.02
129.73
125.33
120.16
113.55
104.40
92.09
77.02
60.72
45.05
31.50
20.45
11.20
2.56
-6.16
-14.46
-20.67
-22.69
-19.11
-9.96
3.37
18.94
35.12
50.84
64.98
75.69
80.07
74.96
58.46
31.32
-2.71
-37.94
-68.73
-91.43
-105.28
-111.90
-113.94
-113.53
-111.50
-107.63
-101.31
-92.56
-82.34
-72.31
-64.10
-58.63
-55.70
-54.26
-53.23
-52.01
-50.77
-50.11
-50.54
-51.94
-53.59
-54.57
-54.29
-52.85
-50.97
-49.55
-49.20
-49.85
-50.84
-51.21
-50.17
-47.44
-43.47
-39.31
-36.13
-34.82
-35.40
-36.85
-37.30
-34.74
-27.86
-16.79
-3.17
10.27
20.81
26.66
27.55
24.63
19.86
15.15
11.77
10.16
10.10
11.06
12.54
14.23
16.03
17.97
20.11
22.44
24.85
27.13
29.07
30.55
31.57
32.24
32.65
32.76
32.45
31.59
30.12
28.21
26.24
24.63
23.70
23.53
23.92
24.53
24.96
24.95
24.38
23.39
22.19
21.04
20.11
19.42
18.83
18.09
17.01
15.57
13.91
12.26
10.74
9.32
7.75
5.77
3.28
0.39
-2.53
-5.11
-7.13
-8.60
-9.77
-10.92
-12.32
-14.14
-16.51
-19.49
-23.00
-26.68
-29.78
-31.29
-30.27
-26.20
-19.27
-10.36
-0.82
8.00
15.02
19.64
21.73
21.50
19.45
16.25
12.69
9.51
7.30
6.29
6.36
7.15
8.18
9.08
9.68
9.99
10.17
10.39
10.76
11.31
11.98
12.68
13.33
13.87
14.30
14.58
14.70
14.61
14.31
13.81
13.20
12.57
11.92
11.21
10.32
9.12
7.57
5.76
3.94
2.41
1.38
0.91
0.84
0.85
0.54
-0.44
-2.24
-4.78
-7.73
-10.67
-13.20
-15.13
-16.59
-17.93
-19.63
-22.07
-25.43
-29.57
-34.05
-38.19
-41.21
-42.35
-41.07
-37.18
-30.96
-23.04
-14.37
-5.92
1.44
7.11
10.86
12.79
13.31
13.04
12.61
12.53
13.07
14.19
15.69
17.29
18.79
20.03
21.00
21.73
22.28
22.71
23.04
23.25
23.26
22.99
22.37
21.43
20.25
18.97
17.70
16.49
15.31
14.09
12.82
11.58
10.47
9.57
8.84
8.09
7.04
5.48
3.42
1.17
-0.81
-2.07
-2.47
-2.24
-1.91
-2.05
-3.03
-4.89
-7.40
-10.22
-13.09
-15.85
-18.45
-20.89
-23.18
-25.47
-28.03
-31.21
-35.24
-39.96
-44.58
-47.84
-48.32
-45.04
-37.94
-27.99
-16.89
-6.46
2.00
8.01
11.85
14.16
15.52
16.21
16.29
15.78
14.84
13.75
12.74
11.87
11.03
10.04
8.90
7.78
7.03
6.99
7.79
9.28
11.11
12.83
14.10
14.75
14.84
14.56
14.11
13.60
12.98
12.09
10.79
9.06
7.14
5.36
4.02
3.28
2.99
2.87
2.61
2.01
1.07
-0.10
-1.34
-2.56
-3.81
-5.22
-6.99
-9.33
-12.39
-16.24
-20.80
-25.81
-30.72
-34.81
-37.24
-37.31
-34.66
-29.45
-22.29
-14.17
-6.15
0.88
6.33
10.01
12.02
12.71
12.49
11.82
11.06
10.48
10.19
10.18
10.35
10.60
10.85
11.08
11.37
11.77
12.34
13.08
13.96
14.92
15.92
16.85
17.55
17.81
17.42
16.28
14.51
12.31
9.98
7.71
5.56
3.47
1.38
-0.71
-2.78
-4.78
-6.73
-8.72
-10.83
-13.09
-15.42
-17.61
-19.46
-20.87
-21.90
-22.83
-24.05
-25.95
-28.73
-32.22
-35.86
-38.73
-39.82
-38.31
-33.94
-27.07
-18.66
-9.95
-2.09
4.22
8.79
11.81
13.64
14.53
14.61
14.01
12.97
11.89
11.18
11.08
11.51
12.24
12.97
13.60
14.25
15.10
16.24
17.60
18.99
20.23
21.22
21.96
22.49
22.79
22.79
22.47
21.92
21.33
20.87
20.54
20.14
19.36
17.93
15.85
13.44
11.17
9.45
8.38
7.71
7.02
5.99
4.60
3.16
2.17
2.00
2.68
3.90
5.13
5.93
6.12
5.84
5.46
5.49
6.44
8.79
12.96
19.16
27.27
36.72
46.49
55.27
61.82
65.20
64.96
60.91
52.86
40.35
22.82
0.09
-26.95
-56.00
-83.65
-106.37
-121.66
-128.79
-128.87
-124.04
-116.59
-108.14
-99.55
-91.17
-83.21
-75.92
-69.43
-63.75
-58.73
-54.35
-50.78
-48.46
-47.84
-49.04
-51.76
-55.50
-59.79
-64.52
-69.96
-76.40
-83.72
-91.17
-97.36
-100.67
-99.80
-94.21
-84.16
-70.60
-54.72
-37.63
-20.13
-2.73
14.31
30.72
46.08
59.65
70.41
77.47
80.60
80.69
79.64
79.60
81.89
86.15
90.29
91.44
87.32
77.36
62.87
46.28
29.81
14.47
-0.17
-15.31
-31.90
-49.81
-67.59
-82.88
-93.39
-97.63
-95.39
-87.61
-75.95
-62.23
-48.06
-34.74
-23.21
-14.06
-7.44
-2.97
0.28
3.57
8.23
15.39
25.68
39.19
55.35
73.13
91.20
108.23
123.15
135.26
144.19
149.70
151.62
149.89
144.73
136.85
127.30
117.15
107.12
97.25
87.11
76.15
64.25
51.97
40.38
30.58
23.28
18.45
15.43
13.30
11.26
8.90
6.28
3.69
1.48
-0.14
-1.13
-1.59
-1.67
-1.51
-1.21
-0.84
-0.48
-0.25
-0.37
-1.03
-2.36
-4.20
-6.16
-7.69
-8.36
-8.07
-7.17
-6.33
-6.23
-7.20
-9.03
-11.04
-12.39
-12.50
-11.36
-9.47
-7.65
-6.53
-6.32
-6.70
-7.03
-6.76
-5.71
-4.18
-2.81
-2.25
-2.91
-4.82
-7.69
-11.04
-14.41
-17.53
-20.32
-22.89
-25.40
-27.97
-30.70
-33.60
-36.71
-40.06
-43.56
-46.89
-49.37
-50.07
-48.12
-43.05
-35.07
-25.15
-14.66
-4.98
2.95
8.82
12.86
15.60
17.56
19.07
20.28
21.20
21.87
22.36
22.78
23.16
23.41
23.32
22.73
21.65
20.34
19.23
18.74
18.98
19.72
20.47
20.70
20.07
18.58
16.52
14.25
12.06
10.06
8.16
6.28
4.36
2.43
0.60
-1.04
-2.44
-3.57
-4.44
-5.11
-5.66
-6.21
-6.83
-7.53
-8.25
-8.92
-9.52
-10.12
-10.88
-11.87
-13.05
-14.24
-15.26
-16.16
-17.32
-19.25
-22.22
-25.95
-29.52
-31.67
-31.37
-28.24
-22.77
-16.01
-9.06
-2.71
2.75
7.24
10.69
12.84
13.42
12.41
10.23
7.70
5.69
4.81
5.06
6.00
6.92
7.28
6.90
6.02
5.12
4.67
4.97
5.96
7.38
8.85
10.01
10.70
10.94
10.92
10.84
10.86
11.00
11.11
10.95
10.33
9.17
7.56
5.73
3.93
2.34
0.96
-0.35
-1.77
-3.44
-5.33
-7.29
-9.05
-10.47
-11.55
-12.54
-13.78
-15.64
-18.25
-21.56
-25.28
-29.02
-32.34
-34.83
-36.01
-35.45
-32.79
-27.97
-21.30
-13.52
-5.64
1.32
6.60
9.91
11.44
11.74
11.46
11.18
11.26
11.86
12.90
14.20
15.54
16.68
17.45
17.80
17.73
17.35
16.75
16.02
15.25
14.53
13.94
13.54
13.34
13.25
13.07
12.58
11.59
10.03
8.05
5.91
3.92
2.34
1.23
0.54
0.10
-0.21
-0.48
-0.69
-0.84
-0.97
-1.21
-1.75
-2.70
-4.06
-5.72
-7.48
-9.17
-10.73
-12.23
-13.81
-15.64
-17.81
-20.32
-23.18
-26.35
-29.71
-33.03
-35.84
-37.43
-37.10
-34.37
-29.21
-22.13
-13.99
-5.79
1.65
7.76
12.26
15.10
16.41
16.47
15.68
14.52
13.43
12.66
12.27
12.18
12.25
12.38
12.57
12.75
12.91
12.99
13.02
13.13
13.49
14.21
15.20
16.16
16.67
16.41
15.30
13.55
11.50
9.49
7.66
6.00
4.37
2.69
0.97
-0.67
-2.10
-3.27
-4.24
-5.16
-6.16
-7.30
-8.55
-9.84
-11.15
-12.52
-14.01
-15.67
-17.45
-19.24
-20.98
-22.74
-24.75
-27.32
-30.51
-33.98
-36.96
-38.41
-37.41
-33.57
-27.18
-19.14
-10.60
-2.61
4.17
9.41
13.11
15.35
16.33
16.31
15.70
14.94
14.42
14.35
14.70
15.23
15.70
15.94
15.93
15.85
15.85
16.10
16.62
17.33
18.08
18.73
19.16
19.28
19.06
18.50
17.56
16.24
14.59
12.70
10.75
8.86
7.07
5.31
3.45
1.46
-0.58
-2.48
-3.99
-4.99
-5.53
-5.83
-6.17
-6.79
-7.82
-9.29
-11.08
-13.04
-15.01
-16.82
-18.37
-19.71
-21.04
-22.67
-24.97
-28.14
-32.12
-36.45
-40.33
-42.78
-42.94
-40.32
-34.98
-27.53
-18.90
-10.05
-1.82
5.25
10.89
15.04
17.82
19.48
20.43
21.10
21.85
22.89
24.22
25.65
26.95
27.94
28.51
28.64
28.32
27.54
26.29
24.53
22.28
19.62
16.66
13.58
10.56
7.74
5.13
2.71
0.47
-1.58
-3.36
-4.80
-5.90
-6.75
-7.45
-8.08
-8.56
-8.73
-8.44
-7.68
-6.68
-5.76
-5.23
-5.29
-5.95
-7.16
-8.83
-10.90
-13.29
-15.85
-18.39
-20.70
-22.70
-24.40
-26.00
-27.79
-30.06
-33.03
-36.66
-40.56
-43.94
-45.75
-44.98
-40.99
-33.85
-24.30
-13.60
-3.09
6.13
13.45
18.72
22.20
24.39
25.81
26.97
28.20
29.64
31.28
32.90
34.28
35.13
35.20
34.38
32.74
30.58
28.37
26.54
25.35
24.66
24.09
23.15
21.50
19.05
15.94
12.38
8.56
4.62
0.77
-2.75
-5.66
-7.79
-9.21
-10.22
-11.18
-12.35
-13.70
-14.97
-15.76
-15.77
-14.94
-13.48
-11.83
-10.57
-10.22
-11.08
-13.13
-15.91
-18.61
-20.26
-20.00
-17.33
-12.28
-5.37
2.48
10.19
16.75
21.41
23.82
24.03
22.46
19.74
16.56
13.45
10.69
8.32
6.18
4.13
2.12
0.28
-1.18
-2.06
-2.28
-1.94
-1.24
-0.37
0.60
1.79
3.42
5.61
8.24
10.86
12.77
13.36
12.29
9.68
6.00
1.87
-2.24
-6.09
-9.66
-13.00
-16.05
-18.67
-20.74
-22.26
-23.40
-24.38
-25.37
-26.33
-27.18
-27.87
-28.60
-29.68
-31.35
-33.51
-35.51
-36.37
-35.11
-31.26
-25.06
-17.39
-9.45
-2.27
3.56
7.93
11.01
13.05
14.20
14.54
14.12
13.12
11.83
10.68
10.09
10.39
11.69
13.81
16.31
18.62
20.25
20.92
20.65
19.65
18.15
16.36
14.45
12.64
11.28
10.62
10.63
10.80
10.35
8.58
5.47
1.74
-1.41
-3.08
-3.21
-2.73
-3.01
-4.95
-8.39
-12.20
-14.92
-15.73
-15.08
-14.48
-15.66
-19.55
-25.68
-32.31
-37.27
-38.98
-37.05
-32.26
-25.95
-19.28
-12.76
-6.32
0.21
6.67
12.39
16.47
18.36
18.21
16.85
15.38
14.66
14.93
15.89
17.02
17.91
18.49
18.93
19.43
20.08
20.77
21.34
21.68
21.75
21.58
21.15
20.40
19.31
17.96
16.49
15.02
13.55
11.98
10.13
7.91
5.39
2.72
0.09
-2.33
-4.42
-6.06
-7.25
-8.10
-8.91
-10.05
-11.76
-13.99
-16.38
-18.53
-20.30
-21.97
-24.10
-27.11
-30.83
-34.36
-36.45
-35.98
-32.54
-26.56
-19.08
-11.26
-3.98
2.35
7.65
11.94
15.18
17.26
18.13
17.97
17.16
16.18
15.44
15.10
15.07
15.12
15.07
14.91
14.78
14.89
15.39
16.21
17.15
17.92
18.31
18.18
17.51
16.33
14.72
12.74
10.53
8.21
5.95
3.89
2.14
0.77
-0.27
-1.12
-2.01
-3.18
-4.78
-6.78
-8.96
-11.04
-12.78
-14.15
-15.30
-16.54
-18.25
-20.71
-24.00
-27.87
-31.70
-34.54
-35.37
-33.42
-28.53
-21.26
-12.75
-4.34
2.90
8.41
12.20
14.58
15.94
16.54
16.55
16.14
15.56
15.06
14.84
14.91
15.16
15.42
15.62
15.80
16.11
16.65
17.38
18.14
18.73
18.99
18.89
18.47
17.81
16.89
15.69
14.20
12.47
10.56
8.57
6.55
4.57
2.68
0.98
-0.46
-1.62
-2.59
-3.57
-4.70
-6.11
-7.76
-9.52
-11.20
-12.57
-13.50
-13.91
-13.85
-13.46
-13.02
-12.86
-13.23
-14.20
-15.43
-16.30
-16.04
-14.11
-10.51
-5.88
-1.33
2.01
3.32
2.36
-0.58
-4.91
-9.94
-14.99
-19.43
-22.64
-24.15
-23.79
-21.79
-18.74
-15.29
-11.90
-8.61
-5.09
-0.89
4.30
10.47
17.16
23.75
29.52
33.95
36.68
37.69
37.14
35.35
32.66
29.37
25.66
21.65
17.43
13.16
9.06
5.37
2.32
0.09
-1.11
-1.09
0.33
3.16
7.15
11.75
16.15
19.46
20.96
20.23
17.32
12.64
6.92
0.93
-4.72
-9.75
-14.32
-18.89
-24.04
-30.21
-37.46
-45.40
-53.20
-59.70
-63.62
-63.87
-59.86
-51.72
-40.37
-27.44
-14.78
-4.09
3.54
7.78
8.99
8.05
5.95
3.61
1.63
0.26
-0.55
-1.03
-1.44
-1.88
-2.29
-2.42
-1.98
-0.73
1.42
4.39
7.95
11.80
15.59
18.96
21.60
23.24
23.76
23.21
21.83
20.07
18.41
17.14
16.31
15.66
14.75
13.24
11.06
8.54
6.19
4.46
3.46
2.99
2.72
2.45
2.18
2.00
1.77
1.11
-0.43
-2.98
-6.13
-9.01
-10.91
-11.86
-12.97
-15.98
-22.38
-32.45
-44.80
-56.77
-65.52
-69.14
-67.31
-61.14
-52.44
-42.81
-33.08
-23.38
-13.61
-4.02
4.62
11.31
15.33
16.77
16.56
16.08
16.47
18.18
20.72
23.13
24.47
24.39
23.27
22.07
21.74
22.82
25.17
28.07
30.64
32.20
32.55
31.95
30.83
29.56
28.23
26.74
24.95
22.87
20.68
18.61
16.75
14.91
12.70
9.78
6.07
1.83
-2.46
-6.42
-9.89
-12.97
-15.85
-18.63
-21.29
-23.91
-26.74
-30.17
-34.43
-39.22
-43.56
-46.03
-45.36
-41.06
-33.66
-24.53
-15.20
-6.87
-0.03
5.37
9.59
12.86
15.22
16.69
17.42
17.72
17.95
18.39
19.12
20.02
20.87
21.51
21.90
22.07
22.15
22.21
22.28
22.34
22.30
22.10
21.70
21.11
20.37
19.51
18.52
17.32
15.81
13.94
11.82
9.64
7.68
6.06
4.71
3.36
1.70
-0.42
-2.90
-5.40
-7.54
-9.09
-10.13
-10.99
-12.15
-14.04
-16.91
-20.88
-25.85
-31.52
-37.29
-42.21
-45.10
-44.84
-40.79
-33.16
-23.07
-12.24
-2.43
5.07
9.86
12.28
13.15
13.34
13.46
13.83
14.58
15.84
17.78
20.44
23.57
26.57
28.60
29.05
27.88
25.88
24.39
24.74
27.65
32.80
38.92
44.26
47.14
46.46
41.87
33.68
22.73
10.25
-2.32
-13.55
-22.16
-27.32
-28.79
-26.93
-22.61
-17.09
-11.79
-7.98
-6.58
-7.93
-11.70
-17.05
-22.88
-28.14
-32.01
-34.01
-34.07
-32.46
-29.84
-27.20
-25.68
-26.26
-29.40
-34.81
-41.46
-47.87
-52.49
-54.20
-52.48
-47.44
-39.70
-30.14
-19.75
-9.45
-0.06
7.84
13.88
17.99
20.39
21.51
21.90
22.04
22.27
22.69
23.24
23.71
23.93
23.82
23.43
22.95
22.64
22.71
23.22
24.04
24.90
25.49
25.55
25.04
24.04
22.73
21.26
19.71
18.04
16.18
14.06
11.68
9.05
6.25
3.35
0.45
-2.36
-5.03
-7.56
-10.09
-12.74
-15.62
-18.69
-21.77
-24.54
-26.69
-28.06
-28.72
-28.98
-29.35
-30.23
-31.83
-33.92
-35.91
-36.99
-36.43
-33.80
-29.14
-22.91
-15.80
-8.63
-2.15
3.05
6.60
8.40
8.60
7.57
5.77
3.61
1.34
-0.87
-2.89
-4.50
-5.42
-5.39
-4.28
-2.04
1.30
5.83
11.70
19.00
27.54
36.74
45.76
53.71
59.94
64.15
66.29
66.38
64.32
60.00
53.50
45.25
36.06
26.87
18.41
10.99
4.45
-1.59
-7.53
-13.44
-19.19
-24.51
-29.23
-33.48
-37.54
-41.76
-46.37
-51.42
-56.77
-62.11
-66.93
-70.47
-71.79
-70.08
-64.93
-56.78
-46.82
-36.70
-27.93
-21.32
-16.79
-13.67
-11.15
-8.75
-6.45
-4.47
-2.98
-1.84
-0.66
0.97
3.26
6.04
8.94
11.55
13.68
15.47
17.31
19.74
23.25
28.23
34.75
42.61
51.25
59.89
67.69
74.02
78.59
81.52
83.13
83.77
83.61
82.70
81.05
78.80
76.16
73.34
70.39
67.14
63.31
58.69
53.30
47.31
40.95
34.33
27.47
20.34
13.02
5.70
-1.39
-8.15
-14.64
-20.92
-26.95
-32.38
-36.60
-39.00
-39.26
-37.49
-34.29
-30.53
-27.16
-25.09
-25.03
-27.58
-33.08
-41.67
-53.19
-67.28
-83.32
-100.37
-117.07
-131.55
-141.76
-145.83
-142.75
-132.76
-117.33
-98.63
-78.79
-59.41
-41.37
-25.15
-11.29
-0.37
7.22
11.89
15.06
18.86
25.31
35.52
49.23
65.09
81.34
96.50
109.68
120.54
128.98
135.05
139.03
141.42
142.76
143.32
142.68
139.78
133.53
123.55
110.73
97.22
85.80
78.85
77.16
79.28
81.36
77.79
62.53
31.26
-16.39
-75.38
-135.76
-185.34
-213.79
-216.43
-195.70
-159.72
-118.72
-81.12
-51.39
-30.36
-17.10
-10.95
-12.25
-21.53
-38.43
-61.12
-87.01
-114.13
-141.91
-170.70
-200.14
-227.83
-248.77
-256.52
-245.50
-213.43
-162.64
-99.79
-33.97
25.84
73.04
104.58
120.80
124.34
118.67
107.06
92.21
76.29
61.09
47.96
37.51
29.43
22.58
15.69
8.08
-0.01
-7.56
-13.51
-17.26
-18.78
-18.23
-15.32
-8.93
2.63
20.80
45.82
76.14
108.56
139.06
163.87
180.55
188.44
188.54
182.93
174.04
164.02
154.37
145.90
138.73
132.53
126.68
120.55
113.88
107.08
101.29
98.22
99.55
106.06
117.10
130.18
141.35
146.05
140.47
122.90
94.50
59.29
22.69
-10.39
-37.69
-60.39
-82.21
-107.55
-139.70
-180.17
-229.11
-285.74
-348.11
-412.20
-471.20
-516.18
-538.66
-533.77
-502.33
-450.43
-386.67
-318.63
-250.65
-184.06
-119.31
-58.26
-4.76
36.90
64.48
79.21
85.49
88.53
91.79
95.77
98.41
97.29
91.59
82.78
73.81
67.32
64.40
64.34
65.56
66.60
66.75
65.78
63.54
59.73
54.23
47.38
40.00
32.98
26.82
21.36
16.01
10.09
3.20
-4.87
-14.20
-24.61
-35.27
-44.33
-49.10
-46.86
-36.06
-17.16
7.22
33.11
56.46
74.21
84.92
88.70
86.87
81.43
74.57
68.24
63.64
61.11
60.11
59.65
58.87
57.40
55.49
53.65
52.23
51.04
49.35
46.17
40.98
34.10
26.84
21.01
17.95
17.90
19.90
22.39
24.11
24.75
24.87
25.22
26.14
27.49
29.11
31.42
35.47
42.36
52.17
63.41
73.27
79.00
79.26
75.15
69.91
67.62
71.52
82.69
99.84
120.06
140.21
158.16
173.31
186.26
197.95
208.95
219.10
227.92
235.02
240.30
243.61
244.23
240.62
230.95
214.15
190.97
164.26
138.14
116.46
101.37
92.73
88.66
86.53
84.07
79.71
72.28
60.61
43.25
18.82
-13.62
-54.04
-101.19
-152.47
-203.97
-250.85
-288.21
-312.29
-321.68
-317.88
-304.61
-286.39
-266.82
-247.65
-228.93
-210.08
-190.95
-172.36
-155.71
-142.07
-131.59
-123.35
-115.98
-108.33
-100.00
-91.28
-82.79
-74.90
-67.50
-60.11
-52.18
-43.51
-34.39
-25.49
-17.51
-10.88
-5.54
-1.09
2.93
6.81
10.48
13.62
15.81
16.68
16.02
13.77
10.05
5.17
-0.36
-5.96
-11.18
-15.84
-20.19
-24.67
-29.72
-35.41
-41.33
-46.70
-50.68
-52.68
-52.62
-50.89
-48.17
-45.16
-42.36
-39.99
-38.07
-36.52
-35.34
-34.57
-34.28
-34.50
-35.20
-36.28
-37.71
-39.46
-41.58
-44.13
-47.14
-50.64
-54.68
-59.30
-64.49
-70.17
-76.12
-82.10
-88.06
-94.22
-101.05
-109.08
-118.58
-129.37
-140.85
-152.24
-162.86
-172.45
-181.17
-189.47
-197.96
-207.08
-216.92
-227.08
-236.50
-243.48
-245.71
-240.69
-226.30
-201.52
-166.97
-124.97
-79.10
-33.20
9.57
47.41
79.83
107.11
129.66
147.63
160.93
169.56
173.94
174.84
173.17
169.55
164.30
157.56
149.65
141.15
132.73
124.88
117.56
110.34
102.60
93.97
84.50
74.65
64.98
55.97
47.80
40.37
33.39
26.43
19.05
10.83
1.62
-8.37
-18.43
-27.51
-34.55
-38.93
-40.70
-40.67
-39.95
-39.41
-39.25
-38.79
-36.72
-31.79
-23.31
-11.59
2.25
16.80
30.89
44.02
56.26
67.89
78.91
88.81
96.70
101.73
103.59
102.55
99.30
94.45
88.48
81.93
76.01
72.99
76.00
88.11
110.77
142.67
179.06
212.48
234.82
240.02
226.42
197.44
160.35
123.31
92.51
70.44
56.24
47.55
42.43
40.19
40.66
42.74
43.59
39.63
28.63
11.53
-7.57
-23.45
-32.69
-35.36
-34.58
-34.36
-37.30
-43.83
-53.11
-64.72
-79.50
-98.75
-122.50
-148.18
-170.96
-185.59
-188.79
-180.67
-164.32
-144.06
-123.20
-102.97
-82.63
-60.69
-36.41
-10.67
14.27
35.80
52.22
63.70
72.29
81.14
93.04
109.43
129.81
152.01
172.91
189.38
199.22
201.79
198.14
190.49
181.19
171.58
161.61
150.44
137.57
123.71
110.48
98.90
87.87
74.01
53.31
23.84
-12.40
-49.84
-81.88
-104.04
-115.59
-118.96
-117.49
-113.46
-107.54
-100.05
-92.73
-89.23
-93.64
-107.89
-129.60
-151.98
-165.99
-163.78
-141.64
-101.16
-48.47
7.96
59.55
99.34
122.84
128.44
117.52
94.18
64.69
36.18
14.81
4.01
3.71
10.90
21.29
31.17
38.68
43.87
47.75
51.08
53.73
54.85
53.58
49.75
44.08
37.73
31.64
25.97
20.17
13.52
5.85
-2.06
-8.73
-12.59
-12.79
-9.55
-3.95
2.78
9.92
17.61
26.63
37.86
51.68
67.55
83.92
98.55
108.99
113.25
110.34
100.73
86.46
70.89
58.02
51.27
52.25
59.92
70.65
79.18
80.44
71.21
51.05
22.06
-12.23
-48.46
-84.57
-120.10
-155.60
-191.58
-227.41
-260.73
-287.72
-303.95
-305.76
-291.56
-262.54
-222.48
-176.71
-130.73
-89.00
-54.33
-28.03
-10.25
-0.39
2.78
1.08
-3.23
-7.75
-10.50
-10.35
-7.25
-2.14
3.43
7.89
10.23
10.34
9.02
7.56
7.15
8.35
10.86
13.72
15.83
16.44
15.41
13.11
10.15
7.05
4.05
1.22
-1.50
-4.14
-6.66
-8.99
-11.07
-12.86
-14.29
-15.28
-15.73
-15.53
-14.73
-13.57
-12.58
-12.49
-14.13
-18.00
-23.97
-31.06
-37.52
-41.37
-41.06
-36.03
-26.89
-15.14
-2.60
9.09
18.81
26.01
30.64
32.99
33.58
33.11
32.31
31.69
31.31
30.58
28.50
24.06
16.80
7.30
-2.89
-11.66
-17.12
-18.29
-15.29
-9.04
-0.67
9.03
19.62
30.74
41.72
51.39
58.33
61.41
60.27
55.57
48.53
40.20
30.72
19.02
3.40
-17.35
-42.92
-71.05
-98.19
-120.69
-136.03
-143.15
-142.09
-133.25
-117.02
-93.98
-65.59
-34.46
-3.89
23.19
45.22
62.32
75.67
86.56
95.59
102.57
106.92
108.26
106.79
103.21
98.31
92.75
86.90
80.86
74.69
68.48
62.39
56.66
51.43
46.68
42.28
37.96
33.42
28.39
22.67
16.18
8.94
1.20
-6.51
-13.53
-19.28
-23.53
-26.46
-28.67
-30.81
-33.28
-36.01
-38.57
-40.49
-41.64
-42.41
-43.58
-46.03
-50.16
-55.69
-61.54
-66.19
-68.15
-66.42
-60.88
-52.23
-41.76
-30.95
-21.03
-12.75
-6.31
-1.56
1.76
3.78
4.54
4.02
2.29
-0.46
-3.92
-7.74
-11.53
-14.80
-17.05
-17.93
-17.56
-16.81
-17.27
-20.76
-28.69
-41.23
-56.93
-73.05
-86.32
-94.13
-95.34
-90.60
-81.94
-71.93
-62.84
-56.04
-52.05
-50.88
-52.42
-56.70
-63.75
-73.21
-84.09
-94.80
-103.45
-108.37
-108.29
-102.38
-90.22
-71.70
-47.15
-17.60
15.21
48.97
81.22
109.93
133.97
153.02
167.11
175.98
178.47
172.79
157.28
131.73
98.29
61.67
28.01
3.06
-9.72
-10.19
-1.16
13.09
28.61
43.02
55.67
66.82
76.66
84.77
90.32
92.94
93.31
93.23
94.79
99.13
105.63
111.99
115.25
113.27
105.79
94.52
82.23
71.48
63.56
58.26
54.38
50.61
46.10
40.66
34.41
27.32
19.05
9.05
-3.11
-17.25
-32.40
-46.91
-58.83
-66.39
-68.66
-65.74
-58.81
-49.74
-40.51
-32.58
-26.54
-22.09
-18.41
-14.64
-10.31
-5.50
-0.65
3.72
7.33
10.18
12.38
13.82
14.04
12.37
8.30
2.00
-5.47
-12.40
-16.91
-17.67
-14.16
-6.70
3.96
17.00
31.60
46.82
61.36
73.61
82.05
85.78
84.82
80.05
72.64
63.45
52.81
40.71
27.35
13.47
0.23
-11.43
-21.45
-30.83
-41.19
-53.83
-68.89
-85.21
-100.85
-114.00
-123.72
-130.08
-133.84
-135.92
-136.91
-136.99
-136.00
-133.62
-129.53
-123.50
-115.50
-105.80
-95.06
-84.23
-74.37
-66.38
-60.70
-57.30
-55.65
-55.02
-54.68
-54.17
-53.33
-52.32
-51.34
-50.38
-48.97
-46.20
-41.03
-32.64
-20.79
-5.83
11.34
29.54
47.47
63.84
77.44
87.36
93.16
95.12
94.09
91.26
87.65
83.74
79.45
74.47
68.76
62.80
57.46
53.49
51.05
49.56
48.03
45.71
42.50
39.05
36.30
34.88
34.79
35.40
35.91
35.80
34.93
33.48
31.62
29.35
26.51
22.98
18.81
14.27
9.69
5.41
1.66
-1.41
-3.66
-5.04
-5.58
-5.49
-5.11
-4.84
-5.08
-6.09
-8.06
-11.01
-14.81
-19.23
-23.97
-28.69
-33.10
-37.02
-40.35
-43.05
-45.16
-46.72
-47.76
-48.30
-48.35
-47.92
-47.12
-46.17
-45.24
-44.34
-43.15
-40.98
-36.96
-30.44
-21.31
-10.19
1.74
13.07
22.61
29.71
34.32
36.84
37.88
38.09
37.99
37.96
38.27
39.10
40.45
42.18
43.97
45.42
46.17
46.04
45.03
43.40
41.46
39.45
37.47
35.42
33.14
30.46
27.33
23.87
20.31
16.96
14.07
11.79
10.11
8.84
7.68
6.26
4.21
1.25
-2.75
-7.65
-13.11
-18.70
-24.09
-29.24
-34.38
-39.83
-45.77
-51.98
-57.92
-62.95
-66.68
-69.20
-70.99
-72.61
-74.38
-76.09
-77.16
-76.80
-74.31
-69.34
-61.91
-52.47
-41.82
-30.99
-21.08
-13.02
-7.33
-4.03
-2.78
-3.07
-4.50
-6.79
-9.74
-13.04
-16.27
-18.93
-20.63
-21.24
-20.80
-19.42
-17.18
-14.19
-10.66
-7.02
-3.77
-1.29
0.39
1.63
2.99
4.90
7.40
10.06
12.19
13.15
12.62
10.69
7.77
4.44
1.31
-1.08
-2.38
-2.47
-1.64
-0.61
-0.34
-1.87
-5.88
-12.42
-20.74
-29.44
-36.78
-41.16
-41.51
-37.54
-29.67
-18.87
-6.40
6.43
18.54
29.33
38.81
47.61
56.72
67.12
79.49
93.90
109.84
126.42
142.62
157.48
170.15
179.83
185.95
188.35
187.30
183.40
177.47
170.33
162.66
154.86
146.70
137.93
128.54
118.95
109.98
102.56
97.41
94.41
92.34
88.40
80.13
66.42
47.83
26.03
2.39
-22.56
-49.26
-78.36
-110.94
-146.49
-183.26
-219.42
-254.17
-287.92
-320.51
-349.78
-371.12
-380.15
-372.89
-347.70
-306.40
-253.99
-197.24
-141.82
-90.82
-36.87
21.68
82.22
139.89
190.17
233.28
267.85
291.65
300.42
293.20
271.50
240.67
207.90
179.72
160.15
149.75
147.01
149.21
153.25
154.61
149.52
135.88
113.72
84.90
51.79
16.65
-19.24
-55.44
-92.80
-131.28
-169.19
-203.19
-229.12
-243.51
-244.39
-232.05
-209.01
-179.83
-149.25
-120.70
-95.43
-72.60
-50.37
-27.12
-2.50
22.29
44.74
62.35
73.63
78.53
78.14
73.79
66.56
56.92
45.07
31.46
17.11
3.73
-6.89
-13.47
-15.91
-15.31
-13.52
-12.36
-12.93
-15.30
-18.76
-22.33
-25.38
-27.89
-30.32
-33.23
-36.83
-40.79
-44.45
-47.30
-49.39
-51.35
-54.02
-57.91
-62.71
-67.26
-70.00
-69.57
-65.43
-57.97
-48.35
-38.03
-28.36
-20.31
-14.47
-11.02
-9.89
-10.72
-12.94
-15.87
-18.86
-21.42
-23.28
-24.47
-25.23
-25.95
-26.98
-28.46
-30.25
-31.98
-33.27
-33.90
-34.01
-33.97
-34.27
-35.28
-37.17
-39.93
-43.55
-48.05
-53.53
-60.00
-67.37
-75.39
-83.76
-92.30
-101.06
-110.19
-119.89
-130.22
-141.02
-152.05
-163.08
-174.01
-184.69
-194.75
-203.26
-208.66
-209.03
-202.68
-188.80
-167.85
-141.53
-112.33
-82.86
-55.36
-31.49
-12.37
1.43
9.96
14.25
16.33
18.86
24.33
34.04
47.54
62.88
77.59
89.87
99.36
107.08
114.64
123.24
132.95
142.79
151.27
157.18
160.04
160.11
158.17
155.07
151.44
147.68
143.93
140.27
136.69
133.23
129.96
127.08
124.89
123.83
124.22
126.00
128.49
130.44
130.38
127.30
121.06
112.49
102.91
93.30
83.67
72.97
59.80
43.32
23.99
3.73
-14.60
-28.07
-34.34
-32.04
-21.03
-2.70
19.89
42.00
57.93
62.80
54.37
34.39
8.19
-17.50
-37.43
-50.18
-58.34
-66.67
-78.90
-95.31
-112.19
-123.79
-125.19
-114.49
-93.24
-65.21
-34.43
-3.99
23.87
46.98
62.56
67.87
61.81
46.20
26.08
8.38
-0.45
3.15
18.86
42.87
69.54
93.43
110.92
121.02
125.31
126.96
129.14
133.67
140.31
146.93
150.61
148.79
140.40
126.06
107.88
88.61
70.70
55.70
44.08
35.73
29.90
25.60
21.76
18.15
15.19
13.57
13.80
15.90
19.85
24.88
29.52
31.56
29.86
24.51
16.72
8.28
0.87
-4.17
-7.41
-11.31
-19.53
-33.30
-51.16
-69.73
-85.09
-94.05
-93.86
-83.62
-64.45
-39.74
-12.34
14.72
37.93
53.76
54.09
36.43
6.49
-20.59
-40.06
-51.85
-58.37
-61.89
-64.71
-68.43
-72.64
-76.36
-79.38
-83.30
-88.99
-96.77
-106.24
-116.07
-124.02
-126.99
-123.00
-112.36
-97.88
-81.85
-65.59
-49.41
-33.24
-17.16
-1.23
14.01
27.88
40.04
51.96
66.03
84.26
107.04
132.47
156.84
175.38
183.62
178.96
162.19
137.22
109.52
83.95
63.14
47.15
34.34
22.96
12.42
3.59
-2.14
-4.01
-2.47
1.16
5.29
8.37
8.73
4.16
-7.73
-28.34
-56.82
-89.66
-121.48
-147.20
-163.83
-171.19
-171.02
-165.44
-155.79
-142.71
-127.10
-110.94
-97.22
-88.73
-86.67
-89.82
-94.92
-98.24
-97.16
-91.20
-82.05
-72.63
-65.91
-63.83
-66.69
-73.11
-80.43
-85.38
-84.92
-76.89
-60.73
-37.87
-11.81
12.51
29.81
35.94
29.26
11.24
-13.82
-39.89
-61.03
-72.98
-74.30
-66.45
-53.04
-38.22
-25.28
-15.69
-9.25
-4.80
-1.36
1.31
2.69
2.03
-0.93
-5.79
-11.68
-17.80
-23.70
-29.12
-33.62
-36.34
-36.27
-32.75
-26.01
-17.12
-7.49
1.79
10.45
18.83
27.57
36.96
46.57
55.14
60.89
62.07
57.63
47.90
34.89
22.06
13.39
12.10
19.25
33.22
50.22
65.69
75.99
79.57
77.17
70.98
63.38
55.91
48.97
42.15
34.92
27.15
19.23
11.84
5.50
0.39
-3.51
-6.30
-7.87
-7.94
-6.30
-3.16
0.79
4.52
7.07
7.92
7.06
4.91
1.97
-1.33
-4.64
-7.53
-9.45
-9.88
-8.59
-5.97
-3.01
-1.09
-1.35
-4.35
-9.77
-16.54
-23.25
-28.69
-32.19
-33.72
-33.80
-33.14
-32.34
-31.49
-30.16
-27.52
-22.68
-15.11
-4.86
7.35
20.47
33.38
45.28
55.81
65.02
73.10
80.18
86.22
91.17
95.20
98.91
103.13
108.59
115.42
123.03
130.24
135.74
138.27
136.56
129.01
113.89
90.25
59.32
25.32
-4.90
-24.10
-27.70
-16.14
4.70
25.21
35.36
28.10
1.45
-41.57
-94.58
-150.30
-202.32
-245.60
-275.91
-289.27
-282.50
-255.26
-212.13
-163.37
-122.50
-101.23
-104.07
-125.93
-154.43
-176.06
-182.52
-173.69
-155.76
-136.04
-118.10
-100.52
-79.08
-50.83
-16.69
19.07
51.88
79.93
105.18
131.36
160.62
191.00
216.44
229.51
225.22
203.76
170.50
133.83
101.59
78.15
63.72
55.67
50.69
46.50
42.23
37.38
30.91
21.16
6.90
-11.55
-31.86
-50.46
-63.85
-69.61
-66.69
-55.08
-35.49
-9.41
20.60
51.06
78.29
99.67
114.49
123.98
130.16
134.36
136.41
134.94
128.56
116.98
101.29
83.26
64.26
44.60
23.44
-0.53
-28.03
-58.62
-90.58
-121.39
-148.63
-170.64
-186.97
-198.41
-206.83
-214.43
-222.84
-232.15
-240.27
-243.24
-236.45
-216.21
-180.96
-131.77
-72.02
-6.56
59.03
119.23
169.13
205.18
225.75
231.52
225.10
210.45
191.77
172.87
156.83
145.85
141.10
142.15
146.68
150.64
149.29
138.90
118.45
90.41
60.13
33.90
16.66
10.40
14.07
24.81
39.55
56.15
73.31
89.67
102.97
110.06
107.91
95.05
72.54
43.85
13.75
-13.32
-34.44
-48.67
-56.74
-60.28
-61.03
-60.36
-58.96
-56.91
-53.88
-49.32
-42.84
-34.40
-24.53
-14.29
-4.94
2.53
7.86
11.71
15.35
19.93
25.91
32.75
39.38
44.69
48.17
49.97
50.79
51.47
52.86
55.77
60.98
68.83
78.91
89.71
98.98
104.75
106.32
104.81
102.64
101.87
102.84
103.39
99.66
87.71
65.31
32.52
-9.01
-57.13
-109.74
-164.20
-216.46
-260.72
-290.62
-301.62
-293.30
-270.04
-239.53
-209.61
-184.91
-165.13
-146.04
-122.44
-91.74
-56.07
-21.60
4.48
17.74
18.87
13.26
7.72
6.31
8.03
7.80
0.41
-15.36
-35.28
-52.08
-60.32
-60.24
-57.91
-61.14
-73.79
-92.25
-106.23
-103.68
-76.83
-25.81
42.31
117.86
193.56
266.80
338.35
408.59
474.39
528.61
562.66
570.57
551.95
512.34
460.83
406.65
356.33
312.56
275.06
242.10
212.05
183.50
154.88
123.52
85.59
37.65
-20.74
-84.76
-144.01
-185.60
-199.68
-184.78
-149.97
-112.38
-90.63
-97.80
-136.98
-201.02
-275.93
-345.93
-397.66
-422.54
-417.59
-384.89
-331.09
-266.65
-203.81
-153.66
-123.20
-113.84
-121.67
-139.48
-158.56
-172.03
-177.20
-175.82
-172.35
-170.17
-168.96
-164.13
-149.16
-117.72
-68.19
-6.22
56.37
105.20
129.20
123.33
88.72
30.81
-40.65
-114.03
-178.11
-223.82
-246.04
-243.19
-217.96
-174.67
-125.89
-85.76
-62.16
-53.92
-51.50
-50.35
-47.77
-41.13
-27.22
-6.97
20.41
55.36
96.73
141.34
184.00
220.01
245.58
258.28
257.44
246.04
229.18
211.99
197.60
186.17
176.48
166.81
156.01
143.94
132.31
123.01
116.55
111.48
105.03
95.31
82.23
67.56
53.99
44.38
40.31
41.53
46.26
52.01
56.71
58.85
57.42
51.71
41.76
28.42
13.31
-1.60
-14.62
-24.79
-32.22
-37.94
-43.44
-50.18
-59.28
-71.42
-86.74
-104.69
-123.88
-142.17
-157.08
-166.55
-169.55
-166.46
-158.81
-148.71
-138.22
-128.76
-120.88
-114.35
-108.40
-101.96
-94.05
-83.98
-71.52
-56.97
-41.07
-24.80
-9.24
4.53
15.60
23.29
27.28
27.66
24.97
19.99
13.69
6.94
0.43
-5.43
-10.54
-15.13
-19.65
-24.61
-30.37
-36.93
-43.83
-50.18
-54.81
-56.62
-54.77
-48.98
-39.56
-27.38
-13.72
-0.01
12.50
22.88
30.65
35.74
38.41
39.11
38.37
36.74
34.75
32.79
31.05
29.51
27.96
26.17
24.03
21.67
19.39
17.48
16.11
15.24
14.68
14.20
13.64
12.86
11.67
9.79
6.98
3.21
-1.15
-5.43
-8.82
-10.77
-11.19
-10.37
-8.86
-7.08
-5.28
-3.54
-1.84
-0.29
1.00
1.82
2.05
1.55
0.27
-1.76
-4.30
-6.88
-8.79
-9.24
-7.57
-3.49
2.85
10.90
19.81
28.58
36.26
41.97
45.11
45.47
43.22
38.94
33.38
27.31
21.30
15.75
10.89
6.85
3.69
1.40
-0.14
-1.12
-1.75
-2.17
-2.44
-2.59
-2.68
-2.88
-3.35
-4.21
-5.37
-6.66
-7.86
-8.83
-9.64
-10.42
-11.25
-12.06
-12.63
-12.78
-12.51
-12.07
-11.96
-12.68
-14.53
-17.49
-21.13
-24.74
-27.41
-28.27
-26.66
-22.33
-15.61
-7.33
1.31
9.19
15.49
19.93
22.71
24.28
25.11
25.54
25.72
25.72
25.60
25.40
25.18
24.89
24.42
23.64
22.52
21.17
19.79
18.64
17.83
17.33
16.93
16.35
15.34
13.76
11.64
9.22
6.75
4.46
2.42
0.53
-1.44
-3.65
-6.18
-8.92
-11.64
-14.11
-16.19
-17.94
-19.54
-21.27
-23.38
-26.09
-29.44
-33.25
-37.00
-39.90
-41.00
-39.55
-35.26
-28.46
-20.00
-11.05
-2.69
4.31
9.59
13.18
15.36
16.55
17.14
17.45
17.71
18.04
18.42
18.81
19.17
19.47
19.72
19.94
20.12
20.26
20.36
20.42
20.43
20.36
20.18
19.82
19.25
18.45
17.37
15.97
14.19
12.01
9.52
6.85
4.18
1.70
-0.49
-2.36
-3.96
-5.36
-6.71
-8.19
-9.95
-12.07
-14.51
-17.08
-19.52
-21.61
-23.28
-24.66
-26.05
-27.84
-30.30
-33.52
-37.28
-40.97
-43.75
-44.66
-42.92
-38.25
-31.00
-22.07
-12.68
-4.01
3.09
8.29
11.63
13.47
14.21
14.25
13.91
13.43
12.97
12.67
12.61
12.85
13.43
14.38
15.64
17.07
18.46
19.55
20.18
20.29
19.98
19.41
18.69
17.85
16.80
15.44
13.76
11.86
9.91
8.08
6.43
4.91
3.44
1.89
0.20
-1.67
-3.70
-5.82
-7.95
-9.95
-11.75
-13.33
-14.81
-16.40
-18.32
-20.73
-23.70
-27.18
-30.93
-34.54
-37.33
-38.51
-37.36
-33.52
-27.16
-19.04
-10.33
-2.22
4.37
9.06
11.95
13.48
14.18
14.53
14.84
15.25
15.77
16.36
16.92
17.37
17.63
17.66
17.52
17.29
17.12
17.09
17.23
17.42
17.46
17.18
16.48
15.33
13.85
12.15
10.34
8.48
6.62
4.83
3.16
1.69
0.46
-0.57
-1.45
-2.30
-3.25
-4.38
-5.76
-7.40
-9.26
-11.21
-13.15
-14.95
-16.62
-18.26
-20.05
-22.28
-25.18
-28.80
-32.84
-36.59
-39.09
-39.33
-36.68
-31.16
-23.45
-14.73
-6.22
1.12
6.84
10.91
13.61
15.22
16.02
16.19
15.94
15.49
15.05
14.79
14.76
14.94
15.27
15.71
16.23
16.83
17.51
18.24
18.95
19.51
19.78
19.60
18.90
17.68
16.03
14.10
12.05
9.97
7.90
5.85
3.85
1.98
0.34
-1.00
-2.04
-2.88
-3.63
-4.47
-5.53
-6.89
-8.57
-10.49
-12.51
-14.48
-16.30
-17.96
-19.58
-21.39
-23.64
-26.50
-29.91
-33.50
-36.59
-38.33
-37.93
-34.95
-29.54
-22.37
-14.49
-6.96
-0.58
4.32
7.79
10.15
11.75
12.86
13.61
14.07
14.24
14.19
14.03
13.91
13.98
14.39
15.17
16.27
17.51
18.69
19.60
20.08
20.12
19.78
19.14
18.28
17.21
15.85
14.13
12.01
9.57
6.97
4.43
2.14
0.17
-1.50
-3.03
-4.59
-6.34
-8.33
-10.46
-12.53
-14.33
-15.75
-16.80
-17.72
-18.85
-20.51
-22.90
-25.99
-29.42
-32.54
-34.50
-34.51
-32.07
-27.17
-20.39
-12.69
-5.20
1.15
5.87
8.91
10.57
11.27
11.44
11.42
11.38
11.44
11.64
11.95
12.32
12.68
13.02
13.38
13.82
14.41
15.17
16.03
16.86
17.53
17.89
17.85
17.33
16.25
14.67
12.70
10.58
8.64
7.11
6.09
5.45
4.93
4.20
3.11
1.71
0.23
-1.02
-1.84
-2.22
-2.38
-2.69
-3.49
-4.93
-6.90
-9.03
-10.92
-12.35
-13.34
-14.23
-15.46
-17.43
-20.30
-23.95
-27.91
-31.51
-33.90
-34.28
-32.15
-27.50
-20.87
-13.29
-5.89
0.41
5.18
8.46
10.57
11.85
12.55
12.83
12.80
12.67
12.68
13.01
13.71
14.69
15.76
16.73
17.51
18.05
18.39
18.55
18.60
18.54
18.36
17.98
17.32
16.30
14.95
13.36
11.70
10.13
8.73
7.48
6.28
5.04
3.72
2.38
1.11
-0.01
-1.03
-2.04
-3.22
-4.70
-6.49
-8.45
-10.36
-12.00
-13.30
-14.34
-15.34
-16.60
-18.41
-20.95
-24.24
-28.00
-31.66
-34.38
-35.24
-33.57
-29.21
-22.63
-14.85
-7.07
-0.30
4.88
8.42
10.59
11.83
12.49
12.85
13.12
13.46
14.03
14.87
15.92
17.06
18.13
19.06
19.84
20.52
21.15
21.70
22.10
22.26
22.19
21.95
21.64
21.33
20.99
20.55
19.91
19.06
18.05
17.01
16.04
15.23
14.65
14.34
14.31
14.54
14.91
15.29
15.54
15.57
15.36
14.87
14.01
12.66
10.70
7.94
4.44
0.58
-3.19
-6.59
-9.74
-12.98
-16.53
-20.29
-23.99
-27.07
-28.75
-28.25
-24.78
-17.37
-4.82
14.31
41.14
75.35
115.39
158.63
201.77
241.40
274.69
300.05
317.17
326.60
327.58
319.73
303.80
281.92
256.94
231.50
207.19
184.02
160.38
130.83
91.47
42.26
-13.11
-69.86
-124.79
-177.13
-227.88
-278.43
-333.68
-394.68
-456.95
-512.52
-554.61
-580.82
-593.16
-596.06
-594.30
-597.43
-610.73
-632.48
-655.79
-673.35
-680.90
-677.28
-663.03
-601.35
-478.23
-308.87
-129.24
28.17
148.29
230.58
281.52
309.60
323.24
324.32
314.93
299.84
285.70
277.25
275.17
277.00
279.51
280.55
275.18
259.07
234.20
206.80
182.98
165.93
155.84
151.23
150.13
147.78
140.73
128.70
114.44
101.04
90.31
82.58
77.38
73.89
69.52
61.85
50.10
36.37
23.85
15.52
13.19
17.16
26.33
37.90
48.85
57.43
65.31
75.55
90.74
111.56
136.70
163.87
190.82
215.97
228.34
220.32
190.53
144.97
92.64
41.13
-4.28
-39.85
-63.31
-74.54
-74.32
-65.60
-52.52
-39.39
-29.45
-24.10
-23.08
-25.34
-29.61
-33.42
-34.60
-31.95
-25.73
-17.40
-8.68
-1.39
2.85
3.04
-0.21
-5.47
-11.14
-16.06
-19.71
-21.97
-23.14
-23.78
-24.56
-25.70
-27.15
-28.76
-30.37
-31.75
-32.50
-32.16
-30.44
-27.42
-23.44
-19.03
-14.79
-11.26
-8.76
-7.30
-6.71
-6.63
-6.76
-6.85
-6.76
-6.49
-6.19
-6.13
-6.47
-7.20
-8.11
-9.08
-10.06
-11.11
-12.41
-14.11
-16.18
-18.33
-20.04
-20.80
-20.81
-20.53
-20.47
-21.08
-22.76
-25.79
-30.25
-35.84
-41.63
-47.02
-50.86
-51.76
-48.84
-42.46
-34.20
-26.06
-19.62
-15.13
-13.33
-14.22
-17.17
-21.33
-26.08
-31.33
-37.59
-46.45
-59.64
-79.96
-107.53
-138.75
-167.50
-188.22
-198.48
-199.39
-194.28
-173.01
-130.46
-68.82
1.93
68.56
119.47
147.49
154.60
145.95
129.00
109.48
91.56
77.75
69.56
67.02
69.09
74.25
80.53
86.30
88.72
85.74
76.89
63.43
47.62
32.12
19.48
11.05
7.18
5.99
4.88
1.79
-3.99
-11.64
-19.15
-24.08
-24.77
-20.62
-12.77
-3.12
6.54
14.98
21.58
26.19
28.92
30.06
30.06
29.30
28.12
26.67
25.01
23.10
21.14
19.77
19.98
23.01
29.89
40.96
55.51
71.74
87.05
98.94
105.80
107.56
105.67
102.33
99.49
98.06
97.80
97.86
97.31
95.34
91.13
83.24
69.72
48.71
19.22
-18.02
-60.71
-106.17
-152.89
-201.32
-253.10
-308.76
-365.58
-416.82
-453.22
-466.14
-450.92
-408.66
-345.49
-269.74
-188.79
-108.11
-31.84
35.89
90.61
128.63
148.83
153.79
149.27
142.56
139.06
140.36
144.25
146.72
144.49
136.77
125.33
113.39
104.78
101.71
104.13
110.02
116.91
123.32
129.41
136.37
140.02
136.70
124.49
104.70
80.55
55.71
33.33
15.69
3.55
-4.07
-8.02
-10.61
-13.76
-18.65
-25.60
-34.15
-43.28
-51.67
-57.86
-59.89
-55.52
-44.09
-27.13
-7.75
10.71
25.94
37.14
44.66
49.53
52.19
52.32
49.29
43.09
34.84
26.49
19.98
16.56
16.74
20.23
26.15
33.14
39.71
44.52
46.82
46.61
44.61
41.97
39.73
38.31
37.54
36.80
35.41
32.78
28.43
22.12
13.94
4.51
-5.03
-13.34
-19.53
-23.73
-27.22
-31.99
-39.81
-51.37
-65.96
-81.59
-95.52
-104.83
-106.98
-100.39
-85.02
-62.75
-37.13
-12.53
7.28
20.31
26.88
29.03
29.26
29.33
29.66
29.64
28.43
25.73
21.94
17.95
14.51
11.96
10.11
8.60
7.14
5.63
4.12
2.63
0.99
-1.17
-4.28
-8.72
-14.59
-21.61
-29.10
-36.06
-41.46
-44.52
-45.01
-43.23
-39.82
-35.45
-30.56
-25.35
-19.90
-14.42
-9.25
-4.72
-1.02
1.89
4.11
5.58
6.03
5.05
2.47
-1.43
-5.81
-9.58
-11.85
-12.37
-11.62
-10.60
-10.28
-11.18
-13.03
-14.98
-15.96
-15.31
-13.01
-9.71
-6.38
-3.82
-2.34
-1.66
-1.10
0.10
2.44
6.02
10.56
15.55
20.38
24.55
27.69
29.64
30.68
31.72
34.51
41.37
54.38
74.11
98.77
124.18
145.02
156.80
157.63
148.70
133.34
115.20
96.62
78.11
58.98
38.53
16.96
-4.64
-24.82
-42.61
-57.68
-70.17
-80.14
-87.34
-91.32
-91.91
-89.54
-85.26
-80.43
-76.20
-73.18
-71.42
-70.67
-70.76
-71.77
-74.02
-77.71
-82.65
-88.13
-93.13
-96.79
-98.81
-99.71
-100.61
-102.96
-108.02
-116.46
-128.17
-142.21
-156.89
-169.88
-178.73
-181.45
-177.29
-167.13
-153.35
-138.76
-125.38
-113.46
-101.34
-86.49
-66.95
-42.53
-15.10
12.30
36.73
56.48
71.30
81.87
88.99
93.01
93.87
91.48
86.29
79.34
72.17
66.32
62.77
61.70
62.58
64.36
65.89
66.31
65.26
62.89
59.87
57.18
56.03
57.59
62.76
71.91
84.58
99.46
114.59
127.87
137.58
142.92
144.02
141.72
137.03
130.76
123.27
114.57
104.64
93.65
82.11
70.64
59.65
49.19
38.94
28.54
17.98
7.74
-1.40
-8.75
-14.04
-17.56
-19.86
-21.39
-22.32
-22.58
-22.21
-21.61
-21.61
-23.14
-26.92
-33.12
-41.33
-50.74
-60.38
-69.24
-76.54
-81.83
-85.21
-87.35
-89.41
-92.62
-97.81
-105.01
-113.48
-121.94
-128.91
-133.09
-133.55
-129.86
-122.14
-111.17
-98.27
-85.10
-73.14
-63.20
-55.20
-48.25
-41.20
-33.15
-23.78
-13.36
-2.45
8.43
19.09
29.77
41.21
54.51
70.80
90.75
113.91
138.52
161.65
179.91
190.49
191.94
184.50
169.73
149.90
127.25
103.83
81.51
62.10
46.73
35.63
27.81
21.32
13.78
3.08
-11.87
-30.93
-52.90
-76.25
-99.28
-120.02
-136.22
-145.64
-146.99
-140.12
-126.11
-106.88
-85.32
-64.32
-46.11
-31.82
-21.86
-16.90
-17.02
-21.36
-27.62
-34.39
-40.78
-46.34
-50.75
-54.35
-59.96
-70.22
-85.97
-104.36
-123.19
-140.38
-154.24
-163.25
-167.34
-170.15
-174.36
-179.14
-178.07
-167.51
-146.63
-117.65
-84.18
-52.28
-32.52
-33.08
-55.64
-91.66
-133.22
-172.86
-204.48
-222.28
-203.85
-142.16
-50.61
29.16
90.42
137.29
178.20
216.71
257.32
302.66
348.76
389.50
419.19
437.75
441.80
428.80
389.33
327.75
260.16
201.76
162.07
134.97
117.54
106.60
99.55
94.74
92.78
92.72
89.86
79.58
60.09
35.78
10.21
-14.21
-35.97
-52.67
-63.36
-69.67
-73.98
-77.90
-80.07
-79.73
-76.69
-70.88
-61.45
-48.56
-34.10
-20.78
-10.85
-4.42
-0.96
0.47
0.86
1.31
2.05
2.37
1.22
-1.96
-6.59
-11.53
-15.60
-17.94
-18.19
-16.66
-14.20
-11.87
-10.53
-10.46
-11.50
-13.12
-14.57
-15.25
-14.85
-13.55
-11.88
-10.44
-9.53
-9.12
-8.97
-9.09
-9.92
-12.22
-16.62
-23.01
-30.33
-36.79
-40.52
-40.33
-36.09
-28.77
-19.98
-11.55
-5.00
-1.29
-0.69
-2.76
-6.57
-10.92
-14.89
-18.12
-21.06
-24.90
-31.23
-41.44
-56.01
-73.94
-92.65
-108.51
-117.84
-118.10
-108.68
-90.99
-67.88
-42.75
-18.61
2.34
18.83
30.45
37.41
40.43
40.57
38.92
36.38
33.27
29.28
23.60
15.25
3.49
-11.87
-30.30
-50.72
-71.82
-92.48
-112.09
-130.53
-147.78
-163.57
-176.93
-186.34
-190.24
-187.89
-179.97
-168.67
-157.05
-147.91
-142.69
-141.08
-141.33
-141.12
-138.45
-132.28
-122.68
-110.65
-97.58
-84.57
-71.88
-58.70
-43.59
-25.26
-3.33
21.23
46.20
68.78
86.44
97.75
103.00
104.36
105.52
110.85
124.08
146.83
177.76
212.60
245.53
271.14
286.12
289.82
283.56
269.35
249.00
224.13
196.91
170.47
148.74
135.04
130.67
134.03
141.20
147.60
149.96
147.50
141.67
134.93
129.20
125.06
121.85
118.49
114.14
108.46
101.38
92.82
82.70
71.20
58.84
46.54
35.10
24.95
16.01
7.91
0.35
-6.65
-12.84
-17.94
-21.76
-24.32
-25.59
-25.42
-23.54
-19.80
-14.30
-7.54
-0.31
6.54
12.31
16.60
19.37
20.89
21.77
22.74
24.56
27.89
33.29
41.16
51.70
64.72
79.46
94.40
107.46
116.43
119.72
116.91
108.94
97.72
85.43
73.78
63.55
54.62
46.31
37.84
28.64
18.44
7.26
-4.76
-17.33
-30.10
-42.57
-54.14
-64.22
-72.48
-78.91
-83.92
-88.24
-92.60
-97.48
-102.82
-108.08
-112.43
-115.11
-115.74
-114.49
-111.97
-108.97
-106.18
-104.01
-102.53
-101.59
-100.88
-100.09
-98.99
-97.49
-95.59
-93.45
-91.26
-89.21
-87.44
-85.98
-84.80
-83.85
-83.03
-82.20
-81.21
-79.99
-78.60
-77.28
-76.44
-76.44
-77.47
-79.43
-82.05
-84.99
-88.07
-91.28
-94.70
-98.40
-102.31
-106.22
-109.96
-113.41
-116.58
-119.48
-122.05
-124.16
-125.64
-126.46
-126.71
-126.63
-126.42
-126.09
-125.32
-123.49
-119.77
-113.22
-102.91
-88.08
-68.45
-44.45
-17.33
10.91
37.97
61.78
80.90
94.83
103.88
108.88
110.83
110.68
109.17
106.92
104.44
102.08
100.04
98.24
96.35
93.87
90.38
85.64
79.81
73.35
66.83
60.70
55.17
50.18
45.49
40.90
36.24
31.38
26.24
20.81
15.24
9.93
5.45
2.37
0.97
1.10
2.13
3.14
3.28
2.01
-0.69
-4.27
-7.76
-9.92
-9.63
-6.22
0.38
9.47
19.74
29.62
37.67
42.98
45.34
45.20
43.31
40.47
37.24
33.94
30.77
27.86
25.39
23.50
22.17
21.20
20.25
19.03
17.41
15.53
13.65
12.04
10.81
9.92
9.20
8.54
7.88
7.28
6.78
6.36
6.02
5.75
5.62
5.77
6.24
6.94
7.58
7.75
7.12
5.54
3.13
0.24
-2.66
-5.06
-6.47
-6.49
-4.89
-1.67
2.92
8.40
14.19
19.74
24.65
28.72
31.87
34.09
35.36
35.71
35.26
34.32
33.27
32.47
32.05
31.79
31.27
30.10
28.13
25.57
22.89
20.59
19.00
18.14
17.89
18.10
18.70
19.68
20.99
22.46
23.81
24.80
25.29
25.32
25.03
24.49
23.68
22.45
20.64
18.15
15.06
11.51
7.68
3.73
-0.18
-3.85
-6.98
-9.25
-10.39
-10.32
-9.24
-7.51
-5.48
-3.33
-0.99
1.70
4.72
7.71
10.01
10.92
10.12
7.92
5.29
3.48
3.56
6.08
10.88
17.30
24.34
30.81
35.45
37.19
35.58
31.11
25.32
20.32
17.91
18.82
22.40
27.01
30.89
32.89
32.87
31.49
29.77
28.78
29.34
31.74
35.54
39.43
41.51
40.10
34.60
25.96
16.20
7.30
0.10
-6.02
-12.50
-20.43
-29.69
-38.95
-46.64
-51.92
-55.12
-57.23
-58.97
-59.94
-58.64
-53.26
-42.80
-27.85
-10.55
6.19
19.88
29.32
34.79
37.70
39.76
42.30
45.91
50.42
55.21
59.53
62.73
64.46
64.77
64.24
63.79
64.37
66.46
69.73
72.96
74.47
72.71
66.93
57.34
45.00
31.32
17.66
5.02
-5.99
-15.09
-22.20
-27.42
-31.03
-33.45
-35.16
-36.55
-37.94
-39.40
-40.81
-41.98
-42.65
-42.70
-42.10
-40.95
-39.50
-38.20
-37.68
-38.58
-41.38
-46.16
-52.54
-59.75
-66.81
-72.99
-78.04
-82.22
-86.06
-90.25
-95.28
-101.46
-108.80
-117.05
-125.91
-135.19
-144.69
-154.09
-163.19
-172.00
-181.18
-191.69
-204.36
-219.84
-238.17
-258.43
-278.54
-296.09
-308.86
-315.82
-316.74
-311.72
-301.25
-286.04
-266.57
-242.39
-212.61
-176.06
-132.45
-82.24
-26.46
32.77
92.67
150.37
203.66
250.37
288.38
312.37
315.16
296.32
265.21
235.08
214.33
205.90
204.43
204.12
201.25
195.87
191.25
187.90
185.51
181.92
174.85
163.35
149.25
135.74
125.82
120.70
118.38
114.71
105.31
88.17
64.21
36.70
9.18
-15.77
-36.87
-54.29
-68.80
-81.47
-92.82
-102.76
-110.45
-114.55
-113.41
-105.51
-90.40
-69.22
-44.80
-20.67
0.03
15.61
25.95
32.26
36.46
40.28
44.84
50.28
56.04
61.34
65.42
67.67
67.60
64.88
59.51
52.31
44.93
39.47
37.64
39.88
45.12
51.30
56.42
59.55
60.88
61.10
60.52
58.83
55.69
51.48
47.62
45.83
46.83
49.46
51.04
48.74
41.21
29.42
16.17
4.65
-3.09
-6.87
-8.17
-9.13
-11.55
-16.23
-22.97
-30.84
-38.59
-45.01
-49.05
-50.01
-47.64
-42.20
-34.44
-25.43
-16.23
-7.71
-0.47
5.22
9.25
11.65
12.50
12.02
10.45
8.10
5.26
2.20
-0.86
-3.74
-6.33
-8.58
-10.55
-12.24
-13.63
-14.65
-15.24
-15.42
-15.35
-15.30
-15.48
-16.01
-16.84
-17.81
-18.75
-19.60
-20.39
-21.22
-22.09
-22.88
-23.36
-23.33
-22.69
-21.58
-20.31
-19.32
-18.92
-19.25
-20.18
-21.37
-22.43
-23.03
-22.99
-22.25
-20.92
-19.09
-16.90
-14.50
-12.05
-9.77
-7.87
-6.51
-5.78
-5.60
-5.83
-6.27
-6.79
-7.31
-7.82
-8.34
-8.86
-9.31
-9.56
-9.57
-9.32
-8.94
-8.52
-8.15
-7.81
-7.42
-6.92
-6.29
-5.61
-5.02
-4.65
-4.56
-4.71
-5.01
-5.31
-5.48
-5.46
-5.25
-4.96
-4.83
-5.11
-6.03
-7.64
-9.85
-12.38
-14.92
-17.17
-18.91
-19.95
-20.14
-19.38
-17.73
-15.48
-13.17
-11.45
-10.82
-11.40
-12.88
-14.70
-16.31
-17.42
-18.13
-18.81
-19.79
-21.16
-22.67
-23.83
-24.18
-23.57
-22.28
-20.92
-20.23
-20.74
-22.60
-25.47
-28.75
-31.78
-34.09
-35.49
-35.98
-35.68
-34.70
-33.11
-30.91
-27.95
-23.88
-18.05
-9.65
2.05
17.22
35.10
53.90
71.11
84.26
91.70
93.07
89.29
81.95
72.55
61.91
50.14
36.92
21.98
5.49
-11.97
-29.66
-46.99
-63.53
-78.97
-92.95
-104.84
-113.73
-118.57
-118.46
-112.96
-102.45
-88.07
-71.46
-54.26
-37.67
-22.21
-7.80
5.90
19.09
31.69
43.40
53.82
62.65
69.67
74.55
76.87
76.21
72.45
66.08
58.09
49.73
42.18
36.14
31.72
28.57
26.13
23.84
21.27
18.26
14.94
11.85
9.87
10.12
13.50
20.33
30.04
41.30
52.33
61.48
67.66
70.53
70.49
68.38
65.13
61.42
57.58
53.58
49.24
44.48
39.51
34.79
30.81
27.80
25.63
23.83
21.92
19.65
17.14
14.76
12.87
11.61
10.77
10.02
9.10
7.99
6.89
6.06
5.66
5.60
5.64
5.53
5.19
4.70
4.31
4.24
4.68
5.64
6.96
8.37
9.51
10.05
9.76
8.61
6.80
4.70
2.70
1.11
0.07
-0.48
-0.75
-1.01
-1.48
-2.32
-3.57
-5.16
-6.95
-8.76
-10.45
-11.92
-13.16
-14.24
-15.30
-16.39
-17.51
-18.51
-19.19
-19.43
-19.26
-18.89
-18.69
-18.97
-19.83
-21.17
-22.68
-24.07
-25.12
-25.87
-26.49
-27.33
-28.76
-31.14
-34.66
-39.31
-44.82
-50.73
-56.47
-61.59
-65.81
-69.20
-72.10
-75.06
-78.71
-83.51
-89.50
-96.22
-102.73
-107.95
-111.04
-111.77
-110.59
-108.31
-105.67
-102.99
-100.12
-96.70
-92.56
-87.91
-83.30
-79.32
-76.27
-73.91
-71.59
-68.53
-64.19
-58.52
-51.81
-44.42
-36.37
-27.27
-16.37
-3.02
12.96
30.97
49.69
67.46
82.74
94.50
102.43
106.74
108.08
107.25
105.10
102.53
100.36
99.19
99.35
100.76
102.99
105.60
108.47
112.07
117.30
125.01
135.50
148.24
162.04
175.62
188.14
199.42
209.64
218.85
226.45
231.13
231.21
225.20
212.24
192.40
166.48
135.80
101.91
66.35
30.68
-3.58
-34.93
-62.10
-84.30
-101.42
-114.16
-123.67
-131.18
-137.47
-142.56
-145.76
-146.06
-142.58
-135.08
-124.11
-110.95
-97.29
-84.81
-74.89
-68.30
-65.13
-64.80
-66.24
-68.19
-69.59
-69.86
-69.02
-67.58
-66.19
-65.17
-64.37
-63.14
-60.79
-56.88
-51.54
-45.30
-38.83
-32.57
-26.65
-20.95
-15.34
-9.81
-4.49
0.45
4.79
8.23
10.24
10.21
7.63
2.53
-4.34
-11.63
-17.91
-22.25
-24.63
-25.96
-27.59
-30.68
-35.69
-42.27
-49.49
-56.29
-61.84
-65.69
-67.72
-68.09
-67.18
-65.54
-63.87
-62.75
-62.41
-62.54
-62.43
-61.41
-59.31
-56.67
-54.66
-54.61
-57.50
-63.60
-72.48
-83.30
-95.16
-107.37
-119.51
-131.35
-142.62
-152.93
-161.68
-168.19
-171.76
-171.76
-167.67
-159.11
-146.01
-128.87
-109.00
-88.41
-69.35
-53.59
-41.74
-33.15
-26.24
-19.21
-10.65
0.16
13.26
28.24
44.33
60.35
74.89
86.55
94.41
98.37
99.28
98.44
97.10
95.89
94.69
92.96
90.15
86.16
81.51
77.22
74.51
74.43
77.60
84.20
94.05
106.86
122.33
140.15
159.91
180.93
202.31
223.02
242.17
259.21
274.02
286.86
298.15
308.41
318.08
327.47
336.58
344.94
351.54
354.95
353.66
346.64
333.84
316.31
295.86
274.23
252.36
230.01
206.05
179.32
149.53
117.68
85.74
55.87
29.45
6.73
-12.96
-30.51
-46.30
-60.00
-70.99
-78.99
-84.49
-88.79
-93.38
-99.38
-107.09
-116.08
-125.56
-134.70
-142.87
-149.51
-154.14
-156.37
-156.12
-153.83
-150.51
-147.35
-145.32
-144.79
-145.45
-146.65
-147.74
-148.34
-148.24
-147.21
-144.81
-140.47
-133.77
-124.83
-114.41
-103.66
-93.81
-85.59
-79.06
-73.76
-68.99
-64.27
-59.47
-54.80
-50.53
-46.86
-43.87
-41.51
-39.80
-38.75
-38.35
-38.47
-38.93
-39.62
-40.65
-42.35
-45.13
-49.19
-54.37
-60.09
-65.52
-69.90
-72.80
-74.14
-74.17
-73.23
-71.77
-70.34
-69.60
-70.25
-72.83
-77.59
-84.44
-93.08
-103.17
-114.46
-126.74
-139.68
-152.60
-164.54
-174.44
-181.46
-185.26
-185.96
-183.89
-179.28
-172.03
-161.90
-148.79
-133.05
-115.62
-97.76
-80.69
-65.10
-51.00
-37.91
-25.27
-12.91
-1.22
8.98
16.90
22.04
24.45
24.59
23.07
20.44
17.03
12.99
8.32
3.02
-2.91
-9.44
-16.67
-24.76
-33.76
-43.21
-51.82
-57.54
-58.07
-51.72
-38.21
-18.84
3.95
27.43
49.52
69.15
86.09
100.48
112.28
121.23
127.09
129.92
130.27
129.03
127.11
125.15
123.43
121.95
120.56
119.18
117.82
116.54
115.36
114.10
112.43
109.99
106.54
102.13
97.08
91.85
86.87
82.35
78.26
74.37
70.41
66.25
61.92
57.62
53.54
49.78
46.24
42.65
38.77
34.47
29.83
25.10
20.58
16.46
12.73
9.16
5.36
0.88
-4.56
-11.01
-18.04
-24.76
-29.98
-32.47
-31.41
-26.65
-18.83
-9.14
1.00
10.37
18.19
24.20
28.55
31.61
33.84
35.61
37.19
38.70
40.18
41.60
42.94
44.17
45.32
46.36
47.27
48.01
48.56
48.98
49.36
49.78
50.26
50.65
50.71
50.19
48.95
47.04
44.68
42.14
39.64
37.25
34.88
32.43
29.81
27.12
24.50
22.10
19.93
17.85
15.64
13.03
9.95
6.47
2.86
-0.61
-3.71
-6.41
-8.87
-11.41
-14.39
-18.07
-22.48
-27.33
-31.94
-35.39
-36.74
-35.30
-30.92
-24.07
-15.72
-7.03
0.95
7.59
12.71
16.44
19.05
20.76
21.67
21.86
21.44
20.70
20.00
19.71
20.05
21.00
22.33
23.72
24.90
25.76
26.33
26.71
26.95
27.00
26.74
26.06
24.96
23.58
22.16
20.89
19.86
19.00
18.16
17.14
15.84
14.25
12.46
10.61
8.87
7.27
5.80
4.31
2.67
0.76
-1.44
-3.86
-6.34
-8.72
-10.87
-12.78
-14.52
-16.32
-18.48
-21.27
-24.82
-28.99
-33.24
-36.75
-38.62
-38.13
-34.99
-29.48
-22.32
-14.48
-6.88
-0.21
5.16
9.13
11.79
13.37
14.13
14.36
14.32
14.25
14.31
14.59
15.07
15.65
16.19
16.58
16.81
16.99
17.27
17.79
18.52
19.28
19.79
19.83
19.29
18.26
16.92
15.45
13.97
12.52
11.09
9.67
8.27
6.89
5.52
4.18
2.86
1.61
0.43
-0.71
-1.90
-3.28
-4.96
-6.96
-9.19
-11.47
-13.60
-15.46
-17.07
-18.62
-20.40
-22.71
-25.75
-29.44
-33.33
-36.65
-38.47
-38.01
-34.93
-29.50
-22.46
-14.85
-7.61
-1.39
3.56
7.25
9.82
11.42
12.17
12.20
11.69
10.86
9.96
9.24
8.83
8.82
9.20
9.91
10.82
11.77
12.64
13.34
13.85
14.13
14.14
13.74
12.82
11.33
9.38
7.25
5.31
3.84
2.90
2.33
1.79
0.97
-0.26
-1.84
-3.52
-5.04
-6.21
-7.03
-7.64
-8.30
-9.22
-10.51
-12.15
-13.96
-15.70
-17.15
-18.28
-19.21
-20.19
-21.49
-23.32
-25.69
-28.37
-30.93
-32.78
-33.30
-32.02
-28.76
-23.70
-17.40
-10.64
-4.24
1.15
5.19
7.88
9.44
10.18
10.36
10.11
9.53
8.73
7.88
7.25
7.02
7.27
7.87
8.58
9.16
9.54
9.77
10.00
10.30
10.66
10.87
10.74
10.14
9.05
7.60
5.91
4.11
2.30
0.57
-1.01
-2.38
-3.56
-4.62
-5.67
-6.81
-8.07
-9.38
-10.63
-11.72
-12.62
-13.39
-14.19
-15.23
-16.72
-18.76
-21.27
-23.91
-26.11
-27.18
-26.52
-23.87
-19.40
-13.67
-7.47
-1.61
3.32
7.06
9.59
11.04
11.64
11.55
10.97
10.07
9.02
8.01
7.19
6.65
6.40
6.44
6.70
7.15
7.74
8.43
9.15
9.82
10.30
10.43
10.08
9.22
7.92
6.30
4.57
2.85
1.22
-0.27
-1.61
-2.77
-3.76
-4.64
-5.51
-6.51
-7.71
-9.07
-10.46
-11.69
-12.69
-13.52
-14.40
-15.61
-17.43
-19.93
-22.98
-26.14
-28.78
-30.18
-29.74
-27.17
-22.58
-16.52
-9.77
-3.18
2.62
7.26
10.64
12.88
14.18
14.72
14.67
14.16
13.33
12.39
11.56
11.03
10.93
11.24
11.79
12.39
12.83
13.00
12.92
12.66
12.30
11.82
11.20
10.36
9.23
7.83
6.21
4.47
2.74
1.18
-0.09
-1.03
-1.70
-2.28
-3.03
-4.12
-5.59
-7.29
-8.97
-10.40
-11.44
-12.14
-12.67
-13.29
-14.23
-15.68
-17.78
-20.50
-23.61
-26.64
-28.94
-29.83
-28.77
-25.64
-20.70
-14.58
-8.08
-2.00
3.09
6.84
9.24
10.48
10.93
10.96
10.84
10.69
10.49
10.21
9.88
9.63
9.61
9.93
10.52
11.24
11.87
12.29
12.46
12.41
12.13
11.60
10.74
9.48
7.89
6.11
4.37
2.83
1.58
0.59
-0.24
-0.99
-1.72
-2.49
-3.36
-4.42
-5.72
-7.24
-8.83
-10.29
-11.44
-12.26
-12.87
-13.49
-14.38
-15.71
-17.55
-19.87
-22.48
-25.05
-27.09
-28.04
-27.36
-24.78
-20.40
-14.68
-8.35
-2.17
3.21
7.39
10.21
11.72
12.15
11.82
11.06
10.16
9.34
8.74
8.43
8.42
8.74
9.35
10.16
11.00
11.69
12.10
12.19
11.97
11.54
10.94
10.19
9.24
8.05
6.59
4.91
3.16
1.53
0.18
-0.84
-1.66
-2.51
-3.64
-5.16
-7.00
-8.87
-10.46
-11.60
-12.32
-12.88
-13.67
-15.03
-17.14
-19.93
-23.02
-25.80
-27.57
-27.68
-25.77
-21.87
-16.44
-10.20
-3.93
1.67
6.20
9.50
11.63
12.74
13.06
12.86
12.40
11.94
11.66
11.68
11.97
12.48
13.07
13.65
14.16
14.57
14.86
14.95
14.78
14.28
13.44
12.31
10.98
9.51
7.93
6.24
4.44
2.65
1.04
-0.21
-1.02
-1.48
-1.88
-2.55
-3.72
-5.39
-7.38
-9.37
-11.12
-12.50
-13.59
-14.51
-15.42
-16.46
-17.75
-19.40
-21.48
-23.91
-26.36
-28.23
-28.77
-27.36
-23.74
-18.21
-11.54
-4.72
1.33
6.05
9.29
11.24
12.25
12.64
12.60
12.21
11.57
10.83
10.22
9.93
10.08
10.64
11.44
12.26
12.91
13.27
13.31
13.05
12.54
11.82
10.92
9.84
8.61
7.26
5.94
4.78
3.90
3.30
2.83
2.28
1.45
0.28
-1.13
-2.57
-3.86
-4.91
-5.75
-6.50
-7.29
-8.22
-9.31
-10.54
-11.84
-13.14
-14.37
-15.56
-16.82
-18.32
-20.24
-22.63
-25.34
-27.90
-29.67
-29.99
-28.33
-24.57
-19.03
-12.41
-5.60
0.52
5.35
8.64
10.47
11.13
10.99
10.38
9.61
8.97
8.67
8.86
9.52
10.48
11.48
12.29
12.80
13.02
13.06
13.01
12.89
12.70
12.39
11.92
11.30
10.49
9.50
8.34
7.07
5.84
4.79
3.99
3.38
2.76
1.95
0.83
-0.49
-1.83
-2.94
-3.79
-4.51
-5.36
-6.55
-8.04
-9.60
-10.89
-11.70
-12.03
-12.14
-12.40
-13.12
-14.46
-16.40
-18.70
-21.02
-22.86
-23.68
-22.96
-20.39
-15.97
-10.17
-3.76
2.39
7.56
11.36
13.75
14.98
15.37
15.21
14.68
13.86
12.79
11.63
10.59
9.93
9.85
10.38
11.33
12.40
13.27
13.72
13.70
13.30
12.70
12.07
11.47
10.83
10.02
8.91
7.50
5.92
4.43
3.25
2.51
2.17
2.05
1.90
1.53
0.83
-0.24
-1.63
-3.30
-5.17
-7.14
-9.09
-10.92
-12.56
-14.04
-15.49
-17.14
-19.14
-21.49
-23.93
-25.89
-26.69
-25.72
-22.71
-17.87
-11.82
-5.43
0.48
5.33
8.86
11.10
12.22
12.45
12.07
11.35
10.56
9.95
9.67
9.74
10.09
10.55
10.95
11.16
11.13
10.88
10.48
10.01
9.55
9.14
8.76
8.40
8.01
7.56
7.00
6.24
5.22
3.90
2.35
0.74
-0.72
-1.87
-2.68
-3.28
-3.89
-4.66
-5.61
-6.65
-7.64
-8.51
-9.28
-10.10
-11.07
-12.26
-13.69
-15.37
-17.38
-19.73
-22.31
-24.73
-26.39
-26.57
-24.78
-20.92
-15.45
-9.16
-3.00
2.30
6.36
9.11
10.71
11.39
11.36
10.82
10.00
9.17
8.53
8.17
8.01
7.93
7.80
7.57
7.31
7.10
6.97
6.87
6.67
6.27
5.63
4.74
3.64
2.34
0.82
-0.93
-2.85
-4.84
-6.71
-8.27
-9.42
-10.13
-10.52
-10.74
-10.98
-11.38
-12.03
-12.95
-14.07
-15.27
-16.35
-17.05
-17.23
-16.91
-16.34
-15.97
-16.27
-17.55
-19.81
-22.68
-25.46
-27.33
-27.54
-25.65
-21.65
-15.94
-9.31
-2.65
3.24
7.82
10.91
12.63
13.26
13.15
12.54
11.58
10.36
8.98
7.58
6.36
5.49
5.06
5.00
5.10
5.05
4.57
3.55
2.03
0.20
-1.76
-3.73
-5.79
-8.13
-10.95
-14.34
-18.20
-22.29
-26.26
-29.87
-33.00
-35.71
-38.13
-40.36
-42.43
-44.23
-45.61
-46.42
-46.58
-46.18
-45.49
-44.99
-45.24
-46.68
-49.39
-52.89
-56.18
-58.06
-57.43
-53.75
-47.13
-38.35
-28.49
-18.65
-9.69
-2.14
3.82
8.28
11.51
13.84
15.66
17.28
18.92
20.74
22.90
25.55
28.77
32.50
36.49
40.32
43.56
45.93
47.37
48.03
48.10
47.64
46.51
44.45
41.28
37.04
32.05
26.88
22.13
18.28
15.55
13.85
12.82
11.98
10.86
9.22
7.05
4.56
2.05
-0.21
-2.03
-3.31
-4.03
-4.21
-4.00
-3.71
-3.70
-4.30
-5.56
-7.14
-8.39
-8.60
-7.37
-4.74
-1.20
2.53
5.86
8.42
10.20
11.37
12.20
12.91
13.68
14.60
15.66
16.83
18.03
19.19
20.29
21.33
22.31
23.13
23.57
23.45
22.69
21.41
19.85
18.29
16.87
15.51
14.02
12.23
10.05
7.53
4.80
2.04
-0.54
-2.72
-4.26
-4.97
-4.83
-4.02
-2.82
-1.52
-0.29
0.82
1.85
2.75
3.39
3.53
2.94
1.50
-0.74
-3.59
-6.68
-9.55
-11.65
-12.47
-11.66
-9.17
-5.33
-0.70
4.02
8.21
11.43
13.45
14.20
13.81
12.56
10.87
9.22
8.00
7.39
7.28
7.41
7.44
7.17
6.53
5.65
4.68
3.75
2.88
2.05
1.24
0.43
-0.37
-1.13
-1.91
-2.74
-3.63
-4.50
-5.15
-5.35
-4.89
-3.73
-1.98
0.11
2.24
4.14
5.59
6.46
6.63
6.07
4.81
3.06
1.12
-0.68
-2.11
-3.15
-4.04
-5.14
-6.81
-9.26
-12.39
-15.82
-18.87
-20.79
-20.89
-18.87
-14.89
-9.62
-4.05
0.89
4.56
6.86
8.14
8.92
9.65
10.52
11.44
12.20
12.65
12.76
12.66
12.55
12.63
13.01
13.73
14.71
15.83
16.94
17.90
18.65
19.11
19.24
18.95
18.15
16.86
15.22
13.54
12.13
11.19
10.67
10.31
9.74
8.70
7.17
5.32
3.47
1.87
0.65
-0.26
-1.01
-1.87
-3.04
-4.70
-6.89
-9.49
-12.15
-14.36
-15.54
-15.24
-13.25
-9.74
-5.17
-0.18
4.57
8.61
11.73
13.97
15.55
16.67
17.48
17.95
18.00
17.53
16.51
15.07
13.39
11.72
10.23
9.05
8.22
7.75
7.59
7.64
7.75
7.70
7.31
6.48
5.23
3.68
2.00
0.32
-1.28
-2.82
-4.29
-5.69
-6.95
-7.97
-8.68
-9.01
-8.97
-8.62
-8.07
-7.50
-7.06
-6.90
-7.02
-7.33
-7.63
-7.74
-7.63
-7.47
-7.60
-8.39
-10.11
-12.68
-15.74
-18.63
-20.61
-21.05
-19.63
-16.41
-11.83
-6.61
-1.56
2.67
5.68
7.41
8.08
8.00
7.52
6.88
6.23
5.70
5.36
5.26
5.33
5.46
5.47
5.23
4.78
4.29
4.02
4.14
4.65
5.29
5.70
5.56
4.73
3.38
1.88
0.63
-0.13
-0.39
-0.37
-0.39
-0.70
-1.34
-2.16
-2.94
-3.48
-3.74
-3.86
-4.03
-4.45
-5.19
-6.20
-7.36
-8.59
-9.78
-10.92
-11.96
-12.89
-13.74
-14.59
-15.58
-16.85
-18.37
-19.91
-20.97
-21.01
-19.57
-16.56
-12.26
-7.29
-2.36
1.91
5.20
7.44
8.76
9.40
9.56
9.41
9.09
8.67
8.23
7.80
7.37
6.95
6.58
6.29
6.13
6.07
6.04
5.91
5.64
5.23
4.78
4.34
3.89
3.26
2.26
0.81
-1.02
-2.98
-4.77
-6.19
-7.21
-7.99
-8.75
-9.71
-10.98
-12.59
-14.49
-16.62
-18.82
-20.89
-22.58
-23.68
-24.13
-24.04
-23.67
-23.30
-23.08
-22.92
-22.47
-21.23
-18.73
-14.70
-9.26
-2.90
3.61
9.47
13.99
16.83
17.97
17.67
16.35
14.45
12.37
10.44
8.87
7.75
7.07
6.73
6.59
6.55
6.57
6.68
6.93
7.32
7.79
8.26
8.69
9.08
9.49
9.92
10.31
10.49
10.32
9.72
8.81
7.80
6.95
6.47
6.36
6.47
6.46
6.01
4.86
2.99
0.62
-1.83
-3.85
-5.08
-5.42
-5.10
-4.65
-4.65
-5.57
-7.59
-10.49
-13.74
-16.63
-18.47
-18.76
-17.27
-14.14
-9.81
-4.92
-0.16
3.90
6.88
8.71
9.50
9.51
9.05
8.36
7.61
6.91
6.33
5.90
5.66
5.63
5.79
6.16
6.75
7.54
8.48
9.49
10.37
10.92
10.94
10.35
9.18
7.61
5.84
4.06
2.36
0.80
-0.62
-1.86
-2.89
-3.68
-4.25
-4.63
-4.91
-5.15
-5.40
-5.78
-6.40
-7.38
-8.75
-10.42
-12.16
-13.73
-14.92
-15.59
-15.69
-15.20
-14.19
-12.91
-11.66
-10.74
-10.17
-9.62
-8.44
-6.03
-2.22
2.58
7.43
11.30
13.44
13.76
12.68
10.88
9.01
7.42
6.23
5.40
4.86
4.55
4.44
4.47
4.54
4.56
4.44
4.14
3.66
3.03
2.27
1.44
0.56
-0.32
-1.18
-2.06
-2.99
-4.01
-5.08
-6.08
-6.81
-7.06
-6.70
-5.72
-4.23
-2.42
-0.47
1.49
3.30
4.81
5.74
5.85
4.98
3.18
0.75
-1.86
-4.21
-5.94
-6.88
-7.00
-6.32
-4.93
-2.95
-0.55
2.06
4.64
6.90
8.62
9.57
9.70
9.09
7.99
6.78
5.83
5.43
5.67
6.50
7.76
9.27
10.84
12.24
13.23
13.59
13.26
12.38
11.34
10.67
10.80
11.94
13.98
16.51
18.97
20.85
21.77
21.61
20.43
18.44
15.88
12.95
9.81
6.58
3.39
0.41
-2.28
-4.66
-6.87
-9.16
-11.71
-14.60
-17.68
-20.66
-23.30
-25.54
-27.49
-29.41
-31.47
-33.58
-35.40
-36.38
-35.95
-33.84
-30.11
-25.22
-19.86
-14.72
-10.27
-6.74
-4.04
-1.97
-0.31
1.04
2.07
2.78
3.17
3.36
3.51
3.73
4.08
4.52
5.01
5.52
6.09
6.74
7.48
8.24
8.90
9.34
9.47
9.27
8.78
8.01
6.98
5.71
4.26
2.78
1.41
0.31
-0.47
-0.97
-1.31
-1.66
-2.13
-2.79
-3.61
-4.55
-5.55
-6.57
-7.60
-8.66
-9.81
-11.18
-12.90
-15.02
-17.44
-19.81
-21.59
-22.19
-21.22
-18.61
-14.65
-9.91
-4.99
-0.41
3.50
6.63
8.95
10.49
11.32
11.55
11.34
10.88
10.37
9.93
9.65
9.52
9.52
9.62
9.77
9.95
10.13
10.29
10.39
10.37
10.17
9.70
8.95
7.93
6.71
5.40
4.12
2.92
1.80
0.66
-0.59
-2.03
-3.66
-5.37
-7.01
-8.42
-9.54
-10.39
-11.12
-11.91
-12.94
-14.31
-15.95
-17.65
-19.04
-19.69
-19.24
-17.45
-14.35
-10.22
-5.51
-0.77
3.53
7.02
9.56
11.15
11.95
12.10
11.80
11.19
10.42
9.66
9.07
8.83
8.99
9.45
10.01
10.40
10.46
10.17
9.65
9.08
8.56
8.02
7.32
6.27
4.81
3.04
1.15
-0.62
-2.17
-3.48
-4.66
-5.89
-7.29
-8.95
-10.90
-13.11
-15.39
-17.47
-19.01
-19.66
-19.14
-17.35
-14.41
-10.58
-6.25
-1.84
2.27
5.82
8.65
10.78
12.28
13.29
13.89
14.14
14.04
13.58
12.82
11.87
10.92
10.15
9.67
9.51
9.58
9.73
9.79
9.67
9.27
8.56
7.52
6.16
4.56
2.84
1.15
-0.42
-1.83
-3.15
-4.49
-5.91
-7.37
-8.75
-9.92
-10.80
-11.43
-11.96
-12.62
-13.70
-15.44
-17.92
-21.00
-24.25
-26.98
-28.49
-28.20
-25.88
-21.73
-16.30
-10.35
-4.59
0.44
4.50
7.63
10.01
11.88
13.42
14.72
15.81
16.66
17.27
17.69
17.96
18.12
18.15
17.98
17.59
17.01
16.40
15.94
15.77
15.88
16.06
15.99
15.37
14.13
12.43
10.60
8.99
7.80
6.98
6.34
5.63
4.71
3.58
2.30
0.94
-0.48
-1.95
-3.46
-4.95
-6.36
-7.68
-8.94
-10.23
-11.56
-12.90
-14.15
-15.25
-16.16
-16.98
-17.84
-18.87
-20.18
-21.82
-23.74
-25.73
-27.39
-28.15
-27.43
-24.89
-20.60
-15.10
-9.20
-3.70
0.89
4.45
7.17
9.35
11.23
12.94
14.45
15.71
16.66
17.29
17.59
17.61
17.44
17.17
16.89
16.66
16.52
16.43
16.40
16.38
16.35
16.23
15.96
15.47
14.75
13.82
12.78
11.72
10.72
9.79
8.92
8.06
7.17
6.23
5.23
4.19
3.16
2.21
1.42
0.82
0.39
0.10
-0.13
-0.39
-0.77
-1.36
-2.20
-3.29
-4.52
-5.74
-6.79
-7.54
-8.04
-8.40
-8.81
-9.42
-10.25
-11.26
-12.36
-13.49
-14.61
-15.71
-16.74
-17.66
-18.52
-19.45
-20.68
-22.37
-24.47
-26.63
-28.22
-28.56
-27.14
-23.84
-18.93
-13.02
-6.84
-1.07
3.83
7.60
10.24
11.86
12.71
13.02
13.00
12.83
12.67
12.62
12.81
13.30
14.08
15.04
15.99
16.76
17.20
17.27
16.99
16.47
15.81
15.08
14.29
13.42
12.43
11.34
10.19
9.11
8.23
7.64
7.30
7.07
6.77
6.28
5.60
4.85
4.21
3.77
3.47
3.12
2.54
1.64
0.49
-0.73
-1.83
-2.71
-3.38
-3.96
-4.59
-5.35
-6.30
-7.41
-8.65
-9.95
-11.25
-12.51
-13.68
-14.77
-15.79
-16.75
-17.66
-18.54
-19.42
-20.32
-21.20
-21.87
-22.00
-21.19
-19.11
-15.68
-11.14
-6.02
-1.00
3.36
6.68
8.81
9.84
9.95
9.43
8.57
7.67
6.99
6.69
6.85
7.44
8.36
9.44
10.48
11.29
11.78
11.92
11.85
11.73
11.67
11.65
11.47
10.88
9.71
8.05
6.25
4.74
3.87
3.70
4.00
4.35
4.37
3.88
2.93
1.78
0.68
-0.21
-0.88
-1.44
-2.01
-2.68
-3.46
-4.30
-5.11
-5.81
-6.39
-6.88
-7.35
-7.83
-8.30
-8.72
-9.02
-9.17
-9.24
-9.31
-9.54
-10.08
-11.03
-12.41
-14.12
-15.83
-17.08
-17.30
-16.08
-13.30
-9.27
-4.60
-0.04
3.81
6.61
8.35
9.23
9.48
9.31
8.82
8.14
7.38
6.70
6.22
6.03
6.15
6.54
7.14
7.83
8.52
9.06
9.36
9.36
9.10
8.69
8.24
7.84
7.45
7.02
6.50
5.90
5.31
4.74
4.07
3.08
1.49
-0.78
-3.53
-6.34
-8.70
-10.26
-10.96
-10.96
-10.55
-9.94
-9.25
-8.56
-8.07
-8.06
-8.83
-10.57
-13.26
-16.72
-20.71
-25.08
-29.77
-34.73
-39.73
-44.29
-47.71
-49.27
-48.45
-45.12
-39.57
-32.38
-24.35
-16.22
-8.64
-2.04
3.36
7.54
10.68
12.99
14.71
15.99
16.90
17.45
17.70
17.78
17.86
18.13
18.71
19.58
20.63
21.65
22.49
23.05
23.30
23.19
22.71
21.78
20.31
18.32
15.89
13.24
10.67
8.41
6.63
5.31
4.32
3.47
2.57
1.51
0.28
-1.03
-2.29
-3.34
-4.04
-4.38
-4.43
-4.41
-4.59
-5.24
-6.55
-8.51
-10.93
-13.39
-15.41
-16.51
-16.33
-14.68
-11.64
-7.52
-2.84
1.78
5.74
8.61
10.23
10.75
10.51
9.90
9.21
8.55
7.85
7.04
6.11
5.24
4.66
4.54
4.86
5.42
5.91
6.09
5.92
5.58
5.32
5.29
5.47
5.65
5.53
4.95
3.93
2.64
1.36
0.28
-0.53
-1.12
-1.63
-2.16
-2.79
-3.49
-4.22
-4.92
-5.54
-6.12
-6.69
-7.30
-8.01
-8.85
-9.90
-11.17
-12.66
-14.22
-15.55
-16.26
-16.00
-14.54
-11.93
-8.44
-4.50
-0.57
2.94
5.74
7.66
8.68
8.95
8.68
8.15
7.57
7.05
6.60
6.24
6.01
5.99
6.23
6.71
7.29
7.77
7.97
7.86
7.53
7.09
6.62
6.11
5.47
4.64
3.65
2.59
1.61
0.80
0.16
-0.41
-1.01
-1.74
-2.61
-3.59
-4.64
-5.67
-6.58
-7.27
-7.67
-7.77
-7.67
-7.53
-7.56
-7.93
-8.72
-9.89
-11.29
-12.67
-13.70
-14.10
-13.61
-12.12
-9.68
-6.51
-2.94
0.59
3.74
6.27
8.15
9.45
10.27
10.70
10.74
10.43
9.83
9.13
8.54
8.23
8.24
8.50
8.86
9.21
9.48
9.64
9.68
9.58
9.32
8.96
8.58
8.24
7.91
7.47
6.77
5.81
4.66
3.54
2.59
1.83
1.09
0.12
-1.25
-3.00
-4.94
-6.78
-8.28
-9.36
-10.10
-10.72
-11.43
-12.44
-13.85
-15.59
-17.45
-19.03
-19.87
-19.50
-17.69
-14.46
-10.20
-5.49
-0.99
2.79
5.61
7.52
8.77
9.65
10.37
11.01
11.50
11.77
11.79
11.63
11.45
11.34
11.34
11.38
11.33
11.14
10.84
10.50
10.19
9.92
9.58
9.07
8.28
7.18
5.82
4.31
2.75
1.24
-0.17
-1.46
-2.67
-3.83
-4.97
-6.09
-7.15
-8.10
-8.89
-9.56
-10.21
-11.02
-12.11
-13.52
-15.09
-16.46
-17.16
-16.75
-15.00
-11.97
-8.05
-3.82
0.14
3.37
5.65
7.03
7.68
7.85
7.78
7.62
7.51
7.48
7.56
7.74
8.03
8.40
8.78
9.11
9.25
9.15
8.79
8.28
7.74
7.27
6.86
6.42
5.81
4.92
3.78
2.48
1.21
0.07
-0.92
-1.84
-2.79
-3.87
-5.07
-6.32
-7.52
-8.61
-9.60
-10.60
-11.71
-12.99
-14.35
-15.54
-16.21
-15.97
-14.57
-11.96
-8.37
-4.25
-0.16
3.40
6.08
7.77
8.57
8.72
8.52
8.22
8.00
7.95
8.08
8.33
8.62
8.87
9.00
8.98
8.82
8.56
8.26
7.95
7.63
7.27
6.80
6.19
5.40
4.44
3.35
2.16
0.94
-0.27
-1.44
-2.59
-3.72
-4.85
-6.00
-7.12
-8.14
-9.01
-9.71
-10.31
-10.98
-11.89
-13.16
-14.74
-16.38
-17.67
-18.12
-17.38
-15.28
-11.98
-7.86
-3.43
0.76
4.33
7.06
8.93
10.07
10.67
10.94
11.05
11.12
11.21
11.35
11.52
11.67
11.74
11.70
11.54
11.30
11.10
11.01
11.09
11.28
11.42
11.32
10.81
9.85
8.52
7.05
5.66
4.55
3.73
3.12
2.55
1.89
1.09
0.22
-0.60
-1.31
-1.92
-2.52
-3.21
-4.05
-5.01
-6.04
-7.06
-8.06
-9.03
-9.98
-10.88
-11.73
-12.57
-13.54
-14.83
-16.54
-18.55
-20.48
-21.73
-21.74
-20.14
-16.98
-12.67
-7.88
-3.25
0.71
3.77
5.94
7.35
8.22
8.74
9.07
9.31
9.57
9.91
10.36
10.85
11.27
11.43
11.21
10.69
10.09
9.72
9.83
10.42
11.28
11.98
12.18
11.70
10.66
9.37
8.17
7.23
6.58
6.07
5.54
4.91
4.20
3.48
2.83
2.26
1.74
1.19
0.59
-0.08
-0.78
-1.48
-2.15
-2.77
-3.33
-3.85
-4.37
-4.97
-5.71
-6.64
-7.71
-8.84
-9.91
-10.82
-11.52
-12.08
-12.58
-13.16
-13.96
-15.05
-16.42
-17.93
-19.27
-20.02
-19.73
-18.08
-15.01
-10.81
-6.06
-1.45
2.39
5.08
6.59
7.12
7.03
6.70
6.42
6.40
6.70
7.27
7.96
8.60
9.02
9.12
8.92
8.52
8.07
7.69
7.45
7.34
7.33
7.31
7.14
6.71
5.93
4.80
3.43
1.98
0.60
-0.60
-1.60
-2.44
-3.16
-3.83
-4.46
-5.08
-5.72
-6.42
-7.20
-8.09
-9.04
-9.97
-10.75
-11.26
-11.40
-11.15
-10.60
-9.86
-9.04
-8.20
-7.32
-6.37
-5.32
-4.20
-3.07
-2.05
-1.26
-0.79
-0.77
-1.28
-2.33
-3.82
-5.51
-6.97
-7.76
-7.52
-6.11
-3.67
-0.53
2.87
6.11
8.85
10.88
12.08
12.46
12.13
11.34
10.37
9.52
8.97
8.79
8.91
9.23
9.62
9.96
10.17
10.16
9.94
9.55
9.15
8.86
8.76
8.85
8.99
9.03
8.83
8.29
7.46
6.43
5.37
4.41
3.66
3.15
2.82
2.60
2.38
2.12
1.80
1.41
0.92
0.32
-0.41
-1.21
-1.97
-2.58
-3.02
-3.38
-3.89
-4.74
-5.98
-7.51
-9.06
-10.33
-11.15
-11.53
-11.64
-11.71
-11.94
-12.40
-13.10
-13.98
-14.92
-15.74
-16.12
-15.71
-14.20
-11.48
-7.74
-3.45
0.75
4.30
6.84
8.28
8.76
8.55
7.93
7.16
6.42
5.85
5.55
5.57
5.90
6.51
7.28
8.07
8.69
8.98
8.87
8.36
7.57
6.69
5.92
5.39
5.14
5.10
5.14
5.09
4.84
4.31
3.50
2.50
1.46
0.52
-0.18
-0.62
-0.91
-1.20
-1.63
-2.27
-3.04
-3.85
-4.60
-5.29
-5.96
-6.69
-7.49
-8.30
-9.05
-9.66
-10.12
-10.47
-10.80
-11.20
-11.82
-12.74
-13.94
-15.24
-16.24
-16.45
-15.46
-13.16
-9.80
-5.87
-1.96
1.49
4.27
6.35
7.79
8.60
8.82
8.50
7.83
7.11
6.63
6.53
6.79
7.21
7.57
7.75
7.77
7.75
7.84
8.09
8.42
8.70
8.76
8.56
8.10
7.46
6.72
5.93
5.10
4.26
3.42
2.61
1.88
1.26
0.76
0.36
0.02
-0.32
-0.70
-1.14
-1.62
-2.13
-2.67
-3.30
-4.06
-4.99
-6.05
-7.09
-7.95
-8.51
-8.78
-8.90
-9.10
-9.60
-10.51
-11.82
-13.38
-14.97
-16.31
-17.09
-17.03
-15.97
-13.89
-10.96
-7.52
-3.99
-0.74
1.95
4.00
5.43
6.34
6.83
6.95
6.73
6.20
5.49
4.77
4.27
4.18
4.57
5.38
6.43
7.55
8.59
9.47
10.17
10.61
10.73
10.52
9.99
9.27
8.48
7.76
7.11
6.51
5.88
5.20
4.49
3.85
3.31
2.90
2.54
2.15
1.67
1.11
0.51
-0.05
-0.50
-0.85
-1.11
-1.42
-1.89
-2.64
-3.71
-5.06
-6.55
-8.07
-9.52
-10.84
-11.99
-12.86
-13.25
-12.90
-11.58
-9.23
-6.03
-2.39
1.18
4.19
6.35
7.60
8.08
8.01
7.58
6.92
6.08
5.11
4.12
3.25
2.65
2.39
2.46
2.71
3.04
3.34
3.56
3.71
3.79
3.79
3.72
3.56
3.25
2.76
2.03
1.09
0.07
-0.84
-1.51
-1.97
-2.39
-3.01
-3.94
-5.15
-6.38
-7.35
-7.92
-8.14
-8.24
-8.49
-9.08
-10.01
-11.19
-12.43
-13.47
-14.04
-13.87
-12.74
-10.57
-7.53
-3.95
-0.31
2.89
5.30
6.77
7.32
7.17
6.61
5.88
5.17
4.53
3.93
3.34
2.77
2.31
2.07
2.11
2.40
2.79
3.12
3.23
3.07
2.68
2.08
1.31
0.34
-0.88
-2.32
-3.91
-5.58
-7.22
-8.82
-10.38
-11.94
-13.51
-15.00
-16.32
-17.35
-18.01
-18.31
-18.31
-18.14
-17.91
-17.62
-17.12
-16.12
-14.23
-11.17
-6.89
-1.71
3.82
9.04
13.38
16.52
18.37
19.07
18.86
18.00
16.73
15.30
13.92
12.78
12.02
11.69
11.72
11.95
12.17
12.20
11.99
11.57
11.03
10.46
9.89
9.25
8.45
7.44
6.24
4.93
3.63
2.40
1.21
0.02
-1.17
-2.33
-3.38
-4.24
-4.95
-5.67
-6.60
-7.89
-9.55
-11.38
-13.03
-14.13
-14.35
-13.54
-11.67
-8.89
-5.47
-1.77
1.78
4.79
6.99
8.29
8.79
8.78
8.56
8.40
8.42
8.60
8.83
9.01
9.14
9.26
9.44
9.70
9.94
10.06
9.93
9.50
8.79
7.90
6.91
5.85
4.73
3.53
2.25
0.96
-0.22
-1.21
-1.99
-2.65
-3.33
-4.17
-5.24
-6.52
-7.89
-9.24
-10.54
-11.81
-13.13
-14.55
-15.98
-17.24
-18.03
-18.06
-17.17
-15.33
-12.71
-9.61
-6.38
-3.36
-0.79
1.17
2.48
3.12
3.20
2.82
2.13
1.26
0.34
-0.56
-1.33
-1.90
-2.15
-2.03
-1.53
-0.70
0.37
1.62
3.04
4.66
6.49
8.46
10.42
12.18
13.57
14.47
14.85
14.75
14.24
13.41
12.41
11.36
10.38
9.54
8.78
7.95
6.90
5.51
3.81
1.92
0.03
-1.68
-3.13
-4.33
-5.37
-6.40
-7.54
-8.87
-10.45
-12.21
-13.93
-15.26
-15.79
-15.14
-13.17
-10.00
-6.08
-1.99
1.70
4.63
6.65
7.86
8.46
8.67
8.64
8.48
8.21
7.90
7.59
7.42
7.48
7.87
8.57
9.49
10.45
11.25
11.71
11.78
11.48
10.90
10.10
9.14
8.06
6.91
5.78
4.77
3.99
3.46
3.14
2.89
2.60
2.16
1.53
0.76
-0.05
-0.77
-1.32
-1.67
-1.92
-2.21
-2.73
-3.56
-4.73
-6.12
-7.56
-8.89
-10.02
-10.94
-11.69
-12.35
-13.01
-13.82
-14.91
-16.36
-18.09
-19.86
-21.22
-21.72
-20.99
-18.93
-15.73
-11.84
-7.86
-4.30
-1.58
0.13
0.88
0.90
0.49
-0.06
-0.52
-0.84
-1.00
-1.04
-0.97
-0.73
-0.26
0.50
1.57
2.91
4.47
6.21
8.09
10.07
12.08
13.98
15.61
16.78
17.39
17.42
16.98
16.21
15.31
14.39
13.51
12.68
11.86
11.01
10.16
9.31
8.46
7.54
6.49
5.25
3.84
2.36
0.97
-0.21
-1.13
-1.90
-2.67
-3.60
-4.74
-6.00
-7.24
-8.34
-9.31
-10.27
-11.39
-12.79
-14.41
-16.04
-17.37
-18.02
-17.74
-16.37
-13.98
-10.77
-7.04
-3.15
0.51
3.64
6.00
7.52
8.22
8.28
7.95
7.47
7.08
6.89
6.97
7.33
7.93
8.71
9.55
10.31
10.86
11.11
11.04
10.70
10.12
9.33
8.31
7.02
5.52
3.94
2.46
1.25
0.40
-0.13
-0.46
-0.70
-0.96
-1.31
-1.78
-2.40
-3.19
-4.16
-5.28
-6.51
-7.77
-8.99
-10.15
-11.28
-12.46
-13.75
-15.17
-16.64
-18.02
-19.14
-19.90
-20.29
-20.41
-20.41
-20.37
-20.33
-20.21
-19.84
-19.03
-17.58
-15.33
-12.22
-8.31
-3.78
1.04
5.79
10.07
13.59
16.17
17.73
18.32
18.07
17.16
15.91
14.61
13.53
12.83
12.51
12.43
12.44
12.40
12.30
12.15
12.02
11.92
11.82
11.67
11.43
11.06
10.51
9.74
8.77
7.65
6.47
5.36
4.41
3.64
2.98
2.33
1.61
0.76
-0.18
-1.16
-2.10
-2.96
-3.72
-4.42
-5.09
-5.75
-6.37
-6.94
-7.43
-7.88
-8.33
-8.88
-9.62
-10.57
-11.73
-13.06
-14.48
-15.80
-16.75
-17.03
-16.32
-14.46
-11.53
-7.81
-3.80
0.01
3.20
5.57
7.13
7.99
8.35
8.37
8.18
7.90
7.60
7.40
7.35
7.49
7.76
8.07
8.29
8.35
8.24
8.03
7.85
7.85
8.07
8.47
8.85
8.95
8.55
7.57
6.14
4.48
2.86
1.43
0.26
-0.68
-1.42
-1.95
-2.25
-2.35
-2.36
-2.44
-2.75
-3.37
-4.28
-5.38
-6.49
-7.46
-8.18
-8.61
-8.86
-9.13
-9.69
-10.76
-12.39
-14.43
-16.47
-18.02
-18.59
-17.86
-15.76
-12.49
-8.47
-4.25
-0.34
2.89
5.27
6.82
7.67
7.98
7.91
7.64
7.37
7.25
7.38
7.73
8.15
8.50
8.68
8.70
8.66
8.67
8.76
8.88
8.89
8.70
8.22
7.51
6.66
5.82
5.10
4.55
4.14
3.78
3.35
2.78
2.06
1.23
0.39
-0.36
-1.00
-1.56
-2.12
-2.74
-3.47
-4.27
-5.06
-5.74
-6.26
-6.68
-7.13
-7.75
-8.65
-9.84
-11.28
-12.87
-14.50
-15.99
-17.12
-17.56
-17.05
-15.42
-12.68
-9.09
-5.04
-0.99
2.61
5.45
7.34
8.27
8.39
8.01
7.46
7.02
6.83
6.85
6.95
7.02
7.05
7.11
7.31
7.71
8.27
8.86
9.32
9.58
9.60
9.42
9.08
8.56
7.84
6.89
5.76
4.57
3.46
2.54
1.84
1.31
0.84
0.32
-0.28
-0.93
-1.57
-2.15
-2.69
-3.24
-3.86
-4.57
-5.30
-5.94
-6.41
-6.74
-7.09
-7.65
-8.55
-9.76
-11.14
-12.52
-13.78
-14.86
-15.67
-16.04
-15.66
-14.27
-11.78
-8.37
-4.51
-0.74
2.49
4.94
6.57
7.47
7.74
7.51
6.87
6.00
5.09
4.34
3.90
3.84
4.15
4.77
5.60
6.55
7.50
8.33
8.91
9.17
9.10
8.76
8.25
7.64
6.94
6.08
5.01
3.75
2.40
1.16
0.17
-0.54
-1.07
-1.58
-2.15
-2.79
-3.44
-4.03
-4.59
-5.23
-6.05
-7.03
-8.07
-8.95
-9.58
-9.96
-10.32
-10.92
-11.94
-13.27
-14.59
-15.40
-15.26
-13.96
-11.56
-8.38
-4.82
-1.28
1.95
4.68
6.74
8.05
8.59
8.45
7.84
7.07
6.44
6.11
6.11
6.33
6.63
6.88
7.07
7.22
7.39
7.58
7.77
7.92
8.03
8.16
8.33
8.51
8.54
8.26
7.53
6.35
4.87
3.35
1.99
0.91
0.10
-0.51
-1.01
-1.48
-2.00
-2.61
-3.34
-4.21
-5.18
-6.20
-7.22
-8.17
-9.02
-9.72
-10.27
-10.73
-11.25
-12.02
-13.11
-14.41
-15.57
-16.06
-15.44
-13.53
-10.53
-6.91
-3.22
0.12
2.88
4.97
6.41
7.20
7.41
7.15
6.67
6.23
6.00
6.03
6.20
6.39
6.55
6.71
6.98
7.39
7.89
8.31
8.51
8.44
8.12
7.66
7.18
6.74
6.34
5.94
5.49
4.94
4.25
3.39
2.38
1.27
0.14
-0.87
-1.69
-2.34
-2.91
-3.56
-4.42
-5.52
-6.77
-8.01
-9.05
-9.81
-10.35
-10.81
-11.38
-12.22
-13.34
-14.60
-15.72
-16.29
-15.96
-14.49
-11.87
-8.33
-4.33
-0.42
2.93
5.42
7.01
7.81
8.07
8.01
7.78
7.48
7.22
7.10
7.20
7.56
8.09
8.61
8.95
9.00
8.80
8.50
8.26
8.19
8.29
8.40
8.34
7.95
7.16
6.07
4.85
3.72
2.85
2.30
2.00
1.79
1.47
0.95
0.22
-0.60
-1.38
-2.08
-2.75
-3.51
-4.43
-5.46
-6.45
-7.22
-7.73
-8.07
-8.49
-9.24
-10.45
-12.08
-13.89
-15.56
-16.72
-17.09
-16.46
-14.79
-12.18
-8.87
-5.26
-1.71
1.42
3.95
5.81
7.03
7.72
7.96
7.85
7.53
7.13
6.83
6.76
7.01
7.52
8.18
8.84
9.40
9.84
10.17
10.38
10.42
10.20
9.64
8.77
7.70
6.62
5.70
5.01
4.53
4.18
3.85
3.49
3.10
2.72
2.34
1.91
1.36
0.63
-0.26
-1.21
-2.08
-2.79
-3.38
-3.96
-4.71
-5.73
-6.97
-8.25
-9.34
-10.10
-10.55
-10.88
-11.33
-12.13
-13.31
-14.69
-15.89
-16.47
-16.09
-14.59
-12.08
-8.86
-5.31
-1.87
1.16
3.56
5.27
6.32
6.81
6.89
6.74
6.54
6.47
6.64
7.09
7.75
8.49
9.11
9.48
9.56
9.42
9.22
9.08
9.06
9.08
9.03
8.75
8.18
7.38
6.43
5.41
4.42
3.50
2.70
2.08
1.67
1.46
1.37
1.27
1.02
0.59
0.00
-0.61
-1.18
-1.70
-2.26
-2.99
-3.93
-5.01
-6.09
-7.02
-7.73
-8.30
-8.89
-9.64
-10.63
-11.81
-13.02
-14.11
-14.92
-15.32
-15.14
-14.24
-12.52
-10.02
-6.94
-3.63
-0.46
2.27
4.41
5.95
6.95
7.46
7.55
7.31
6.89
6.53
6.44
6.73
7.33
8.02
8.50
8.59
8.29
7.83
7.50
7.54
7.99
8.65
9.15
9.19
8.63
7.55
6.25
5.05
4.15
3.59
3.24
2.90
2.44
1.80
1.02
0.17
-0.70
-1.52
-2.27
-2.91
-3.42
-3.81
-4.15
-4.54
-5.12
-5.93
-6.94
-8.03
-9.07
-9.95
-10.72
-11.47
-12.35
-13.44
-14.63
-15.68
-16.19
-15.84
-14.43
-12.01
-8.86
-5.40
-2.03
0.93
3.34
5.20
6.55
7.47
8.01
8.21
8.12
7.84
7.52
7.32
7.34
7.58
7.98
8.39
8.70
8.89
8.99
9.09
9.19
9.22
9.06
8.58
7.78
6.80
5.83
5.07
4.57
4.29
4.08
3.82
3.40
2.78
1.97
1.04
0.06
-0.81
-1.47
-1.87
-2.09
-2.26
-2.59
-3.20
-4.12
-5.28
-6.55
-7.77
-8.80
-9.56
-10.06
-10.41
-10.84
-11.62
-12.85
-14.39
-15.81
-16.54
-16.06
-14.17
-11.11
-7.38
-3.61
-0.29
2.32
4.17
5.38
6.10
6.50
6.75
6.94
7.14
7.35
7.53
7.65
7.75
7.93
8.26
8.74
9.27
9.68
9.84
9.68
9.29
8.80
8.33
7.97
7.71
7.48
7.19
6.76
6.18
5.47
4.69
3.87
2.98
1.98
0.88
-0.23
-1.23
-1.97
-2.36
-2.47
-2.45
-2.50
-2.74
-3.20
-3.81
-4.51
-5.25
-6.04
-6.87
-7.72
-8.52
-9.22
-9.82
-10.44
-11.21
-12.21
-13.41
-14.60
-15.46
-15.61
-14.77
-12.85
-9.99
-6.53
-2.90
0.46
3.21
5.17
6.33
6.81
6.83
6.63
6.43
6.41
6.63
7.05
7.57
8.01
8.25
8.26
8.14
8.02
8.02
8.16
8.36
8.51
8.49
8.28
7.90
7.42
6.87
6.30
5.71
5.12
4.56
4.07
3.66
3.30
2.93
2.46
1.85
1.11
0.28
-0.56
-1.32
-1.96
-2.48
-2.93
-3.41
-3.99
-4.70
-5.51
-6.35
-7.17
-7.94
-8.69
-9.46
-10.32
-11.26
-12.26
-13.26
-14.14
-14.72
-14.77
-14.09
-12.55
-10.19
-7.24
-4.04
-0.97
1.68
3.73
5.14
5.94
6.22
6.07
5.65
5.16
4.76
4.56
4.58
4.72
4.91
5.12
5.38
5.78
6.32
6.93
7.43
7.67
7.60
7.25
6.73
6.13
5.48
4.77
4.00
3.23
2.57
2.09
1.78
1.56
1.28
0.85
0.22
-0.53
-1.33
-2.08
-2.72
-3.22
-3.57
-3.86
-4.17
-4.66
-5.41
-6.46
-7.75
-9.13
-10.42
-11.53
-12.42
-13.11
-13.59
-13.74
-13.34
-12.18
-10.16
-7.39
-4.20
-1.07
1.59
3.57
4.88
5.69
6.18
6.48
6.63
6.63
6.50
6.33
6.19
6.12
6.12
6.17
6.24
6.36
6.59
6.93
7.35
7.70
7.85
7.73
7.36
6.79
6.09
5.28
4.35
3.31
2.25
1.33
0.70
0.40
0.31
0.22
-0.07
-0.63
-1.35
-2.04
-2.53
-2.80
-3.01
-3.36
-4.02
-4.97
-6.07
-7.09
-7.90
-8.51
-9.09
-9.83
-10.84
-12.09
-13.37
-14.40
-14.87
-14.54
-13.32
-11.23
-8.47
-5.31
-2.09
0.89
3.36
5.15
6.18
6.50
6.27
5.72
5.14
4.76
4.71
5.01
5.54
6.16
6.71
7.12
7.39
7.57
7.74
7.92
8.10
8.18
8.08
7.76
7.21
6.53
5.78
5.01
4.24
3.47
2.72
2.08
1.65
1.45
1.39
1.31
1.06
0.53
-0.28
-1.25
-2.26
-3.23
-4.13
-4.99
-5.84
-6.70
-7.52
-8.27
-8.93
-9.53
-10.19
-11.03
-12.13
-13.44
-14.73
-15.67
-15.93
-15.25
-13.58
-11.05
-7.89
-4.42
-0.99
2.09
4.53
6.17
6.96
7.07
6.76
6.30
5.92
5.69
5.60
5.60
5.68
5.89
6.24
6.72
7.26
7.74
8.07
8.23
8.19
8.00
7.65
7.16
6.56
5.93
5.35
4.86
4.47
4.07
3.57
2.92
2.15
1.35
0.61
-0.03
-0.59
-1.13
-1.71
-2.36
-3.09
-3.87
-4.71
-5.58
-6.48
-7.41
-8.35
-9.31
-10.27
-11.25
-12.21
-13.13
-13.92
-14.41
-14.44
-13.77
-12.29
-9.94
-6.90
-3.50
-0.19
2.63
4.68
5.92
6.45
6.51
6.33
6.09
5.88
5.74
5.67
5.66
5.71
5.84
6.07
6.42
6.87
7.37
7.80
8.05
8.03
7.73
7.22
6.62
6.05
5.55
5.08
4.54
3.87
3.06
2.18
1.33
0.60
-0.01
-0.60
-1.26
-2.08
-3.02
-3.98
-4.82
-5.44
-5.86
-6.18
-6.53
-7.06
-7.86
-8.94
-10.23
-11.57
-12.77
-13.61
-13.91
-13.53
-12.36
-10.39
-7.70
-4.53
-1.22
1.77
4.09
5.51
6.11
6.15
5.98
5.89
5.99
6.23
6.47
6.64
6.76
6.92
7.23
7.71
8.25
8.68
8.88
8.82
8.57
8.25
7.95
7.63
7.16
6.41
5.32
3.98
2.61
1.46
0.74
0.50
0.60
0.80
0.82
0.47
-0.33
-1.51
-2.91
-4.34
-5.64
-6.72
-7.59
-8.32
-9.02
-9.80
-10.74
-11.90
-13.23
-14.61
-15.78
-16.46
-16.33
-15.18
-12.95
-9.79
-6.05
-2.20
1.30
4.09
6.03
7.18
7.73
7.91
7.91
7.82
7.73
7.68
7.77
8.06
8.57
9.23
9.89
10.40
10.62
10.54
10.22
9.79
9.33
8.87
8.40
7.88
7.28
6.61
5.90
5.16
4.40
3.63
2.83
2.04
1.28
0.55
-0.13
-0.79
-1.44
-2.11
-2.87
-3.76
-4.82
-6.02
-7.23
-8.33
-9.20
-9.85
-10.43
-11.15
-12.15
-13.45
-14.82
-15.91
-16.30
-15.74
-14.17
-11.76
-8.82
-5.72
-2.78
-0.26
1.70
3.03
3.74
3.93
3.80
3.56
3.41
3.44
3.62
3.84
4.01
4.10
4.16
4.24
4.32
4.27
3.91
3.11
1.88
0.40
-1.06
-2.23
-2.93
-3.15
-2.93
-2.39
-1.66
-0.81
0.09
1.00
1.94
2.92
3.99
5.15
6.35
7.46
8.36
8.89
8.96
8.53
7.66
6.44
5.05
3.67
2.43
1.40
0.53
-0.28
-1.16
-2.22
-3.54
-5.16
-7.06
-9.14
-11.17
-12.76
-13.50
-13.03
-11.28
-8.44
-4.99
-1.50
1.53
3.79
5.23
5.99
6.32
6.48
6.61
6.78
6.94
7.06
7.10
7.11
7.19
7.41
7.76
8.16
8.48
8.63
8.58
8.37
8.08
7.73
7.35
6.91
6.42
5.90
5.38
4.88
4.40
3.91
3.40
2.85
2.26
1.62
0.92
0.18
-0.55
-1.22
-1.76
-2.18
-2.53
-2.95
-3.54
-4.36
-5.36
-6.44
-7.49
-8.43
-9.27
-10.07
-10.94
-11.98
-13.24
-14.62
-15.91
-16.82
-17.03
-16.29
-14.52
-11.80
-8.42
-4.72
-1.09
2.13
4.71
6.56
7.69
8.21
8.28
8.10
7.89
7.83
8.06
8.57
9.27
9.98
10.53
10.84
10.93
10.86
10.73
10.58
10.41
10.23
10.00
9.71
9.33
8.82
8.14
7.29
6.31
5.30
4.40
3.68
3.16
2.78
2.44
2.01
1.41
0.60
-0.33
-1.27
-2.05
-2.60
-2.96
-3.24
-3.61
-4.17
-4.94
-5.92
-7.04
-8.25
-9.45
-10.56
-11.46
-12.12
-12.57
-12.99
-13.57
-14.39
-15.30
-15.95
-15.89
-14.77
-12.50
-9.33
-5.75
-2.30
0.59
2.72
4.11
4.96
5.50
5.90
6.22
6.46
6.63
6.76
6.93
7.20
7.55
7.91
8.16
8.23
8.15
8.03
8.00
8.15
8.43
8.73
8.84
8.63
8.08
7.27
6.36
5.51
4.78
4.21
3.78
3.43
3.12
2.74
2.23
1.54
0.73
-0.09
-0.80
-1.34
-1.76
-2.19
-2.76
-3.52
-4.47
-5.56
-6.71
-7.86
-8.93
-9.81
-10.41
-10.71
-10.81
-10.92
-11.33
-12.22
-13.62
-15.32
-16.91
-17.95
-18.06
-17.03
-14.93
-11.97
-8.53
-4.95
-1.55
1.42
3.80
5.47
6.47
6.90
6.98
6.92
6.89
6.93
7.05
7.21
7.39
7.61
7.83
7.99
8.02
7.88
7.64
7.45
7.44
7.64
7.96
8.20
8.16
7.79
7.12
6.31
5.47
4.65
3.79
2.85
1.80
0.73
-0.23
-0.96
-1.42
-1.68
-1.86
-2.12
-2.56
-3.20
-4.02
-4.94
-5.89
-6.82
-7.66
-8.36
-8.93
-9.40
-9.87
-10.48
-11.33
-12.42
-13.59
-14.53
-14.88
-14.31
-12.67
-10.05
-6.74
-3.16
0.25
3.11
5.21
6.51
7.11
7.20
7.00
6.71
6.45
6.24
6.08
5.98
5.99
6.18
6.60
7.20
7.85
8.36
8.62
8.60
8.39
8.09
7.79
7.48
7.09
6.59
6.00
5.40
4.81
4.20
3.47
2.52
1.36
0.11
-1.10
-2.14
-3.01
-3.78
-4.48
-5.13
-5.67
-6.06
-6.36
-6.73
-7.31
-8.18
-9.29
-10.47
-11.59
-12.62
-13.63
-14.66
-15.65
-16.33
-16.32
-15.30
-13.16
-10.06
-6.39
-2.62
0.80
3.58
5.55
6.73
7.22
7.21
6.96
6.70
6.61
6.77
7.15
7.64
8.11
8.47
8.67
8.74
8.74
8.72
8.75
8.86
9.04
9.25
9.40
9.38
9.08
8.45
7.49
6.29
5.02
3.83
2.86
2.10
1.51
0.94
0.33
-0.35
-1.02
-1.62
-2.10
-2.50
-2.96
-3.60
-4.50
-5.62
-6.81
-7.89
-8.72
-9.24
-9.55
-9.86
-10.36
-11.22
-12.43
-13.83
-15.18
-16.16
-16.45
-15.78
-14.02
-11.20
-7.57
-3.59
0.22
3.38
5.67
7.10
7.84
8.13
8.15
8.01
7.77
7.55
7.43
7.50
7.74
8.04
8.23
8.26
8.15
8.06
8.12
8.41
8.86
9.30
9.53
9.42
8.96
8.19
7.23
6.16
5.07
4.01
3.01
2.10
1.30
0.60
-0.00
-0.53
-0.97
-1.33
-1.58
-1.77
-2.01
-2.45
-3.23
-4.36
-5.74
-7.13
-8.27
-9.01
-9.37
-9.56
-9.82
-10.36
-11.23
-12.33
-13.47
-14.43
-15.02
-15.07
-14.40
-12.86
-10.41
-7.17
-3.47
0.16
3.22
5.37
6.55
6.99
7.03
6.99
7.00
7.03
6.95
6.70
6.31
5.94
5.74
5.83
6.16
6.64
7.14
7.57
7.90
8.11
8.18
8.03
7.64
7.02
6.24
5.41
4.62
3.94
3.41
3.03
2.79
2.69
2.69
2.71
2.64
2.35
1.77
0.91
-0.20
-1.47
-2.81
-4.18
-5.47
-6.59
-7.45
-8.05
-8.48
-8.90
-9.52
-10.45
-11.69
-13.08
-14.37
-15.25
-15.44
-14.75
-13.10
-10.59
-7.46
-4.08
-0.84
1.92
4.02
5.42
6.25
6.67
6.84
6.91
6.97
7.09
7.29
7.59
7.94
8.29
8.58
8.78
8.90
8.95
8.94
8.85
8.66
8.36
7.95
7.45
6.87
6.22
5.52
4.83
4.23
3.76
3.42
3.10
2.69
2.05
1.17
0.14
-0.85
-1.68
-2.28
-2.72
-3.15
-3.70
-4.41
-5.25
-6.12
-6.99
-7.83
-8.70
-9.63
-10.59
-11.56
-12.53
-13.49
-14.47
-15.37
-15.96
-15.89
-14.80
-12.52
-9.17
-5.16
-1.07
2.52
5.22
6.87
7.54
7.48
6.97
6.32
5.74
5.38
5.28
5.47
5.91
6.53
7.24
7.91
8.41
8.64
8.61
8.39
8.13
7.96
7.91
7.93
7.90
7.70
7.23
6.48
5.51
4.42
3.37
2.49
1.84
1.43
1.13
0.81
0.35
-0.31
-1.11
-1.96
-2.78
-3.48
-4.09
-4.64
-5.19
-5.78
-6.43
-7.14
-7.90
-8.74
-9.65
-10.62
-11.64
-12.67
-13.66
-14.46
-14.84
-14.54
-13.32
-11.13
-8.12
-4.65
-1.14
2.03
4.62
6.54
7.80
8.45
8.58
8.29
7.77
7.21
6.80
6.66
6.77
7.02
7.25
7.37
7.34
7.23
7.16
7.19
7.32
7.43
7.34
6.97
6.32
5.53
4.80
4.24
3.85
3.53
3.15
2.61
1.97
1.30
0.69
0.15
-0.36
-0.90
-1.52
-2.19
-2.88
-3.56
-4.23
-4.93
-5.68
-6.48
-7.30
-8.11
-8.90
-9.68
-10.51
-11.43
-12.44
-13.43
-14.22
-14.53
-14.06
-12.62
-10.21
-7.05
-3.51
-0.05
2.97
5.31
6.92
7.83
8.14
7.96
7.45
6.80
6.24
5.95
6.02
6.37
6.86
7.31
7.60
7.74
7.79
7.85
7.94
8.05
8.11
8.03
7.78
7.34
6.69
5.86
4.84
3.68
2.46
1.29
0.32
-0.38
-0.83
-1.15
-1.51
-2.08
-2.90
-3.95
-5.11
-6.26
-7.31
-8.22
-9.00
-9.65
-10.22
-10.78
-11.45
-12.33
-13.43
-14.58
-15.47
-15.71
-14.98
-13.14
-10.29
-6.76
-3.00
0.56
3.57
5.81
7.25
7.97
8.14
7.96
7.63
7.30
7.09
7.04
7.13
7.29
7.45
7.55
7.62
7.74
7.96
8.31
8.70
8.98
8.96
8.53
7.69
6.54
5.30
4.19
3.37
2.91
2.75
2.72
2.61
2.26
1.60
0.71
-0.28
-1.17
-1.84
-2.22
-2.39
-2.49
-2.68
-3.11
-3.81
-4.74
-5.83
-7.00
-8.19
-9.40
-10.59
-11.74
-12.81
-13.81
-14.72
-15.50
-16.01
-15.98
-15.10
-13.15
-10.16
-6.43
-2.46
1.22
4.18
6.23
7.40
7.88
7.89
7.69
7.48
7.41
7.54
7.85
8.25
8.63
8.89
9.00
8.99
8.93
8.91
8.97
9.12
9.32
9.48
9.53
9.36
8.88
8.00
6.75
5.26
3.77
2.59
1.90
1.71
1.83
1.96
1.84
1.40
0.73
0.02
-0.53
-0.90
-1.20
-1.59
-2.23
-3.19
-4.39
-5.75
-7.12
-8.41
-9.53
-10.44
-11.14
-11.72
-12.30
-13.06
-14.09
-15.39
-16.75
-17.80
-18.12
-17.39
-15.45
-12.40
-8.58
-4.43
-0.42
3.04
5.71
7.51
8.53
8.93
8.93
8.72
8.48
8.32
8.27
8.34
8.45
8.53
8.55
8.52
8.50
8.57
8.77
9.07
9.38
9.60
9.66
9.51
9.16
8.59
7.79
6.78
5.61
4.44
3.45
2.78
2.45
2.33
2.19
1.84
1.20
0.38
-0.37
-0.87
-1.06
-1.08
-1.19
-1.62
-2.45
-3.61
-4.88
-6.07
-7.05
-7.79
-8.31
-8.69
-8.99
-9.30
-9.78
-10.59
-11.84
-13.48
-15.25
-16.70
-17.31
-16.72
-14.82
-11.82
-8.14
-4.29
-0.73
2.23
4.41
5.82
6.59
6.89
6.94
6.88
6.76
6.61
6.41
6.20
6.07
6.19
6.62
7.34
8.20
9.01
9.58
9.82
9.76
9.48
9.09
8.65
8.16
7.55
6.75
5.71
4.51
3.30
2.24
1.43
0.86
0.45
0.07
-0.35
-0.81
-1.25
-1.64
-2.01
-2.51
-3.24
-4.28
-5.53
-6.86
-8.08
-9.12
-10.00
-10.82
-11.69
-12.71
-13.91
-15.25
-16.61
-17.74
-18.34
-18.07
-16.65
-14.02
-10.38
-6.17
-1.95
1.79
4.71
6.70
7.84
8.32
8.41
8.32
8.19
8.09
8.01
7.93
7.84
7.76
7.74
7.82
7.98
8.21
8.42
8.56
8.62
8.62
8.56
8.42
8.16
7.71
7.07
6.28
5.46
4.76
4.23
3.86
3.51
3.04
2.33
1.41
0.38
-0.60
-1.41
-2.01
-2.50
-3.00
-3.66
-4.52
-5.54
-6.56
-7.47
-8.18
-8.75
-9.30
-9.99
-10.94
-12.19
-13.66
-15.18
-16.49
-17.25
-17.12
-15.84
-13.34
-9.87
-5.89
-1.98
1.38
3.92
5.64
6.72
7.33
7.62
7.63
7.42
7.10
6.86
6.86
7.22
7.88
8.68
9.42
9.96
10.27
10.39
10.43
10.44
10.40
10.26
9.97
9.50
8.93
8.35
7.80
7.31
6.83
6.28
5.61
4.77
3.80
2.72
1.58
0.46
-0.53
-1.30
-1.80
-2.12
-2.41
-2.86
-3.60
-4.63
-5.85
-7.11
-8.31
-9.43
-10.49
-11.52
-12.50
-13.42
-14.26
-15.03
-15.70
-16.18
-16.26
-15.67
-14.21
-11.85
-8.77
-5.30
-1.85
1.23
3.70
5.45
6.53
7.02
7.08
6.85
6.43
5.94
5.49
5.20
5.18
5.49
6.09
6.85
7.61
8.17
8.44
8.40
8.14
7.75
7.35
6.97
6.62
6.25
5.78
5.12
4.25
3.20
2.05
0.92
-0.13
-1.06
-1.90
-2.68
-3.46
-4.25
-5.05
-5.85
-6.61
-7.28
-7.83
-8.31
-8.80
-9.44
-10.35
-11.54
-12.84
-13.95
-14.49
-14.15
-12.79
-10.52
-7.57
-4.34
-1.18
1.58
3.78
5.37
6.43
7.10
7.54
7.83
8.01
8.04
7.89
7.61
7.31
7.17
7.26
7.60
8.05
8.47
8.71
8.72
8.53
8.17
7.69
7.09
6.38
5.60
4.83
4.11
3.47
2.86
2.24
1.54
0.72
-0.20
-1.21
-2.30
-3.46
-4.65
-5.80
-6.85
-7.73
-8.46
-9.08
-9.67
-10.29
-11.01
-11.88
-12.93
-14.10
-15.22
-15.97
-16.00
-15.02
-12.95
-9.95
-6.42
-2.88
0.24
2.68
4.40
5.54
6.30
6.87
7.35
7.76
8.05
8.20
8.22
8.15
8.10
8.14
8.35
8.70
9.13
9.51
9.76
9.81
9.66
9.36
8.95
8.46
7.88
7.20
6.42
5.58
4.72
3.90
3.13
2.39
1.67
0.96
0.26
-0.39
-1.00
-1.62
-2.33
-3.19
-4.20
-5.30
-6.41
-7.46
-8.42
-9.31
-10.17
-11.06
-12.05
-13.21
-14.55
-16.01
-17.32
-18.11
-17.92
-16.45
-13.69
-9.95
-5.81
-1.85
1.48
4.02
5.82
7.06
7.90
8.45
8.79
8.97
9.03
9.04
9.09
9.21
9.45
9.80
10.19
10.53
10.72
10.70
10.49
10.17
9.84
9.57
9.36
9.09
8.64
7.90
6.86
5.64
4.45
3.50
2.90
2.62
2.48
2.27
1.81
1.06
0.07
-1.00
-2.02
-2.89
-3.62
-4.24
-4.80
-5.34
-5.86
-6.39
-6.91
-7.46
-8.13
-8.98
-10.07
-11.37
-12.78
-14.18
-15.44
-16.43
-17.04
-17.12
-16.49
-15.03
-12.74
-9.73
-6.27
-2.69
0.72
3.68
6.03
7.67
8.59
8.91
8.80
8.47
8.09
7.76
7.52
7.44
7.60
8.05
8.78
9.64
10.41
10.86
10.87
10.49
9.85
9.10
8.28
7.42
6.50
5.61
4.87
4.37
4.05
3.72
3.13
2.14
0.80
-0.63
-1.84
-2.63
-2.99
-3.13
-3.32
-3.74
-4.43
-5.28
-6.14
-6.91
-7.58
-8.18
-8.80
-9.48
-10.28
-11.26
-12.43
-13.75
-15.04
-16.00
-16.26
-15.53
-13.68
-10.87
-7.44
-3.86
-0.55
2.20
4.25
5.63
6.46
6.93
7.23
7.48
7.77
8.08
8.39
8.64
8.81
8.90
8.95
8.97
8.99
9.03
9.13
9.32
9.62
9.95
10.19
10.13
9.64
8.65
7.26
5.69
4.25
3.18
2.58
2.39
2.37
2.26
1.88
1.19
0.33
-0.50
-1.15
-1.61
-2.00
-2.48
-3.17
-4.06
-5.05
-6.02
-6.88
-7.63
-8.35
-9.08
-9.85
-10.67
-11.56
-12.58
-13.77
-15.12
-16.45
-17.42
-17.61
-16.71
-14.59
-11.39
-7.50
-3.42
0.35
3.48
5.78
7.26
8.03
8.25
8.10
7.72
7.31
6.99
6.88
7.04
7.43
7.97
8.52
8.99
9.33
9.54
9.67
9.72
9.69
9.57
9.35
9.01
8.56
8.02
7.40
6.68
5.86
4.93
3.94
2.99
2.16
1.55
1.14
0.86
0.57
0.15
-0.44
-1.14
-1.79
-2.26
-2.48
-2.52
-2.54
-2.74
-3.23
-4.02
-5.01
-6.01
-6.86
-7.40
-7.61
-7.59
-7.51
-7.60
-8.02
-8.78
-9.72
-10.51
-10.80
-10.33
-9.02
-7.02
-4.59
-1.98
0.61
3.03
5.14
6.76
7.70
7.87
7.36
6.44
5.47
4.76
4.46
4.54
4.83
5.14
5.38
5.55
5.71
5.90
6.11
6.22
6.12
5.70
4.96
3.98
2.87
1.77
0.73
-0.21
-1.05
-1.82
-2.51
-3.12
-3.66
-4.18
-4.70
-5.21
-5.67
-5.97
-6.04
-5.89
-5.66
-5.54
-5.69
-6.17
-6.90
-7.67
-8.31
-8.76
-9.13
-9.71
-10.68
-12.06
-13.52
-14.55
-14.59
-13.33
-10.83
-7.51
-4.02
-0.91
1.48
3.08
4.03
4.53
4.72
4.66
4.32
3.67
2.75
1.66
0.60
-0.16
-0.42
-0.08
0.72
1.68
2.37
2.53
2.08
1.14
0.01
-1.02
-1.71
-1.89
-1.37
0.01
2.43
5.86
9.95
14.08
17.60
20.20
22.08
23.87
25.34
25.78
24.02
19.02
10.81
0.65
-9.47
-17.72
-23.33
-26.70
-28.88
-30.68
-32.05
-32.12
-29.90
-25.01
-18.09
-10.46
-3.51
2.09
6.44
10.17
13.88
17.66
21.14
23.66
24.74
24.31
22.76
20.72
18.84
17.51
16.79
16.43
16.06
15.34
14.08
12.44
10.53
8.57
6.65
4.74
2.73
0.56
-1.64
-3.60
-4.94
-5.43
-5.07
-4.08
-2.75
-1.28
0.26
1.94
3.77
5.71
7.60
9.32
10.79
12.09
13.41
15.06
17.38
20.62
24.82
29.75
34.89
39.61
43.30
45.55
46.11
44.96
42.22
38.06
33.43
29.39
26.97
26.83
29.01
32.88
37.38
41.44
44.29
45.73
46.04
45.86
46.00
47.12
49.48
52.81
56.38
59.31
60.91
60.96
59.75
57.92
56.09
54.63
53.62
52.90
52.29
51.66
50.90
49.92
48.63
47.06
45.32
43.54
41.72
39.49
35.95
29.71
19.32
3.70
-17.38
-43.08
-71.63
-100.76
-128.18
-152.00
-170.87
-184.00
-190.95
-191.45
-185.28
-172.24
-152.35
-126.05
-94.48
-59.61
-24.01
9.62
39.03
62.95
81.10
94.00
102.47
107.15
108.36
106.18
100.69
92.09
80.86
67.60
52.99
37.69
22.35
7.58
-6.09
-18.30
-28.95
-38.35
-47.10
-56.03
-65.85
-76.94
-89.15
-101.76
-113.73
-124.03
-132.00
-137.59
-141.33
-144.08
-146.62
-149.32
-151.98
-153.93
-154.41
-152.90
-149.49
-144.80
-139.88
-135.69
-132.63
-130.17
-126.79
-120.22
-108.05
-88.43
-60.78
-26.19
12.70
52.24
88.67
119.18
142.40
158.55
168.95
175.34
179.26
181.82
183.66
185.16
186.60
188.11
189.57
190.60
190.50
188.50
183.95
176.38
165.64
151.97
136.05
118.92
101.83
85.71
70.81
56.53
41.70
25.21
6.68
-13.19
-32.90
-50.66
-65.17
-76.00
-83.54
-88.65
-92.18
-94.63
-96.20
-96.94
-97.01
-96.77
-96.62
-96.87
-97.50
-98.17
-98.39
-97.75
-96.11
-93.58
-90.50
-87.23
-84.11
-81.31
-78.92
-76.88
-75.08
-73.34
-71.48
-69.36
-66.97
-64.40
-61.71
-58.92
-55.99
-52.87
-49.61
-46.27
-42.94
-39.56
-35.95
-31.85
-27.09
-21.70
-15.96
-10.26
-4.93
-0.17
4.07
7.83
11.11
13.71
15.33
15.72
14.82
12.83
10.14
7.18
4.28
1.68
-0.41
-1.79
-2.18
-1.40
0.55
3.46
6.90
10.42
13.65
16.34
18.33
19.54
19.91
19.43
18.13
16.14
13.67
10.97
8.33
5.99
4.12
2.65
1.38
-0.10
-2.15
-5.02
-8.70
-12.94
-17.34
-21.49
-25.10
-28.09
-30.51
-32.46
-34.00
-35.10
-35.70
-35.78
-35.40
-34.59
-33.28
-31.30
-28.34
-24.19
-18.86
-12.58
-5.69
1.55
8.98
16.50
23.92
30.87
36.93
41.77
45.34
47.81
49.46
50.52
51.14
51.32
51.04
50.31
49.17
47.75
46.23
44.82
43.71
42.90
42.18
41.11
39.16
36.01
31.72
26.74
21.80
17.59
14.54
12.72
11.92
11.79
12.06
12.67
13.80
15.75
18.83
23.11
28.33
34.07
39.77
45.06
49.78
54.02
57.92
61.52
64.62
66.86
67.85
67.30
64.98
60.60
53.73
43.97
31.26
16.25
0.25
-15.14
-28.63
-39.69
-48.57
-55.79
-61.56
-65.44
-66.57
-64.32
-58.91
-51.49
-43.68
-36.81
-31.27
-26.45
-21.27
-14.95
-7.51
0.13
6.63
10.81
12.18
10.94
7.76
3.37
-1.68
-7.07
-12.61
-18.04
-23.01
-27.18
-30.36
-32.54
-33.89
-34.66
-35.05
-35.19
-35.11
-34.78
-34.07
-32.85
-30.93
-28.28
-24.94
-21.12
-17.15
-13.30
-9.79
-6.59
-3.61
-0.69
2.21
4.96
7.33
9.06
9.98
10.10
9.55
8.48
7.00
5.16
2.99
0.66
-1.57
-3.37
-4.44
-4.71
-4.36
-3.74
-3.20
-2.95
-2.97
-3.09
-3.10
-2.90
-2.48
-1.88
-1.18
-0.42
0.28
0.80
0.99
0.80
0.35
-0.10
-0.33
-0.25
0.03
0.34
0.57
0.76
1.09
1.71
2.58
3.54
4.37
4.98
5.40
5.74
6.00
6.10
5.89
5.38
4.70
4.08
3.68
3.52
3.49
3.50
3.55
3.75
4.15
4.67
5.02
4.90
4.18
3.03
1.79
0.84
0.39
0.41
0.70
1.05
1.28
1.30
1.07
0.59
-0.10
-0.87
-1.57
-2.02
-2.08
-1.69
-0.91
0.12
1.21
2.10
2.60
2.65
2.27
1.64
0.98
0.50
0.31
0.39
0.63
0.90
1.12
1.21
1.14
0.91
0.48
-0.12
-0.85
-1.66
-2.50
-3.34
-4.15
-4.91
-5.58
-6.11
-6.47
-6.67
-6.75
-6.75
-6.63
-6.37
-5.97
-5.56
-5.33
-5.42
-5.79
-6.21
-6.32
-5.88
-4.86
-3.52
-2.26
-1.44
-1.21
-1.52
-2.19
-3.05
-3.95
-4.77
-5.41
-5.77
-5.80
-5.55
-5.18
-4.91
-4.91
-5.28
-5.91
-6.57
-6.96
-6.80
-5.96
-4.54
-2.81
-1.13
0.19
0.99
1.30
1.25
1.03
0.79
0.66
0.72
1.00
1.46
1.98
2.43
2.70
2.76
2.69
2.56
2.46
2.45
2.53
2.76
3.19
3.87
4.76
5.73
6.60
7.24
7.64
7.89
8.12
8.34
8.51
8.53
8.35
8.06
7.82
7.75
7.86
7.98
7.91
7.43
6.52
5.27
3.90
2.64
1.68
1.14
1.11
1.59
2.46
3.57
4.66
5.46
5.82
5.72
5.27
4.66
4.05
3.56
3.20
2.96
2.79
2.63
2.47
2.37
2.40
2.66
3.14
3.78
4.40
4.82
4.97
4.93
4.91
5.12
5.67
6.50
7.41
8.23
8.89
9.43
9.96
10.58
11.26
11.95
12.51
12.86
12.95
12.76
12.31
11.64
10.84
10.02
9.32
8.84
8.59
8.46
8.26
7.81
7.03
6.01
4.91
3.91
3.09
2.40
1.68
0.82
-0.22
-1.36
-2.42
-3.30
-3.96
-4.46
-4.91
-5.38
-5.84
-6.23
-6.45
-6.41
-6.12
-5.61
-4.97
-4.32
-3.75
-3.27
-2.79
-2.22
-1.47
-0.58
0.28
0.85
0.94
0.54
-0.19
-0.99
-1.66
-2.10
-2.35
-2.43
-2.35
-2.11
-1.75
-1.46
-1.44
-1.82
-2.48
-3.15
-3.51
-3.42
-2.98
-2.49
-2.20
-2.24
-2.50
-2.77
-2.88
-2.76
-2.43
-1.96
-1.44
-1.00
-0.75
-0.80
-1.21
-1.90
-2.64
-3.21
-3.43
-3.28
-2.86
-2.37
-2.01
-1.84
-1.89
-2.12
-2.48
-2.92
-3.41
-3.86
-4.15
-4.14
-3.75
-3.02
-2.10
-1.19
-0.47
0.02
0.30
0.49
0.66
0.86
1.06
1.25
1.41
1.56
1.67
1.69
1.54
1.21
0.74
0.28
-0.01
-0.02
0.23
0.67
1.13
1.48
1.64
1.60
1.41
1.15
0.86
0.50
0.04
-0.59
-1.31
-1.91
-2.12
-1.74
-0.82
0.37
1.40
1.89
1.68
0.93
-0.01
-0.75
-1.07
-1.05
-0.91
-0.89
-1.10
-1.44
-1.65
-1.50
-0.88
0.05
0.98
1.55
1.56
1.07
0.35
-0.34
-0.84
-1.16
-1.42
-1.72
-2.01
-2.17
-2.05
-1.62
-0.99
-0.36
0.01
0.01
-0.36
-0.88
-1.28
-1.31
-0.90
-0.23
0.37
0.59
0.22
-0.69
-1.87
-3.05
-4.01
-4.72
-5.21
-5.50
-5.62
-5.54
-5.31
-5.07
-4.99
-5.14
-5.52
-5.98
-6.37
-6.58
-6.54
-6.28
-5.82
-5.25
-4.69
-4.28
-4.18
-4.43
-5.00
-5.74
-6.52
-7.25
-7.86
-8.34
-8.66
-8.80
-8.81
-8.79
-8.88
-9.15
-9.59
-10.09
-10.50
-10.76
-10.87
-10.95
-11.19
-11.67
-12.41
-13.31
-14.20
-14.96
-15.58
-16.16
-16.94
-18.06
-19.52
-21.10
-22.45
-23.30
-23.53
-23.29
-22.78
-22.16
-21.44
-20.55
-19.44
-18.21
-17.01
-15.92
-14.77
-13.18
-10.71
-7.17
-2.74
2.07
6.66
10.73
14.35
17.86
21.61
25.59
29.39
32.32
33.63
32.85
29.87
24.94
18.57
11.40
4.12
-2.65
-8.56
-13.69
-18.67
-24.54
-32.30
-42.42
-54.47
-67.04
-78.25
-86.47
-90.89
-91.98
-91.23
-90.54
-91.33
-93.97
-97.75
-101.30
-103.42
-103.70
-102.70
-101.55
-101.28
-102.33
-104.45
-107.05
-109.69
-112.19
-114.52
-116.39
-117.21
-116.43
-114.13
-111.37
-109.92
-111.49
-116.66
-124.35
-132.02
-136.51
-135.20
-126.83
-111.65
-91.10
-66.99
-40.85
-13.64
14.10
41.83
68.56
92.77
112.66
126.87
135.04
138.08
137.82
136.22
134.69
133.66
132.79
131.50
129.57
127.32
125.47
124.61
124.81
125.52
125.76
124.62
121.64
117.05
111.58
106.12
101.29
97.22
93.58
89.86
85.62
80.70
75.22
69.39
63.39
57.35
51.36
45.55
40.07
34.97
30.20
25.56
20.86
15.93
10.66
4.93
-1.35
-8.14
-15.13
-21.51
-26.13
-27.81
-25.82
-20.23
-11.90
-2.23
7.37
15.85
22.64
27.65
31.04
33.09
34.08
34.30
34.05
33.65
33.41
33.62
34.44
35.83
37.61
39.48
41.15
42.42
43.24
43.63
43.63
43.23
42.35
40.93
38.96
36.51
33.71
30.76
27.84
25.12
22.70
20.58
18.66
16.78
14.80
12.68
10.54
8.52
6.74
5.16
3.56
1.62
-0.95
-4.31
-8.38
-12.78
-16.86
-19.82
-20.85
-19.42
-15.47
-9.44
-2.18
5.31
12.22
18.00
22.42
25.50
27.35
28.11
27.94
27.08
25.88
24.69
23.82
23.47
23.68
24.34
25.27
26.25
27.11
27.75
28.14
28.28
28.15
27.69
26.83
25.50
23.73
21.61
19.26
16.79
14.22
11.55
8.71
5.72
2.67
-0.28
-2.97
-5.31
-7.35
-9.26
-11.31
-13.75
-16.79
-20.49
-24.70
-29.09
-33.06
-35.89
-36.87
-35.46
-31.55
-25.52
-18.23
-10.77
-4.18
0.79
3.90
5.36
5.69
5.56
5.65
6.52
8.53
11.81
16.20
21.31
26.64
31.71
36.23
40.12
43.47
46.44
49.11
51.40
53.09
53.89
53.53
51.91
49.05
45.15
40.50
35.43
30.24
25.20
20.51
16.31
12.67
9.59
7.02
4.81
2.73
0.52
-2.05
-5.14
-8.79
-12.89
-17.21
-21.39
-24.97
-27.45
-28.38
-27.44
-24.57
-20.00
-14.18
-7.66
-0.93
5.60
11.68
17.09
21.63
25.06
27.25
28.22
28.15
27.36
26.18
24.86
23.55
22.24
20.94
19.67
18.53
17.66
17.13
16.94
16.93
16.82
16.32
15.19
13.39
11.06
8.53
6.15
4.18
2.63
1.34
-0.01
-1.68
-3.82
-6.36
-9.08
-11.70
-14.01
-15.92
-17.46
-18.79
-20.14
-21.78
-23.95
-26.76
-29.99
-33.15
-35.48
-36.26
-34.97
-31.57
-26.44
-20.23
-13.73
-7.57
-2.23
2.02
5.05
6.88
7.68
7.73
7.39
6.99
6.74
6.75
7.02
7.48
8.08
8.74
9.35
9.80
9.97
9.85
9.48
8.94
8.30
7.57
6.67
5.53
4.14
2.57
0.94
-0.64
-2.13
-3.58
-5.04
-6.55
-8.04
-9.43
-10.61
-11.53
-12.21
-12.76
-13.39
-14.33
-15.80
-17.86
-20.30
-22.61
-24.09
-24.10
-22.24
-18.60
-13.68
-8.23
-2.97
1.61
5.33
8.16
10.19
11.45
11.95
11.78
11.07
10.05
8.95
7.99
7.29
6.90
6.80
6.90
7.07
7.16
7.08
6.76
6.20
5.40
4.37
3.15
1.77
0.34
-1.03
-2.27
-3.45
-4.73
-6.28
-8.17
-10.27
-12.34
-14.15
-15.60
-16.76
-17.81
-18.96
-20.38
-22.20
-24.50
-27.25
-30.20
-32.88
-34.64
-34.82
-33.00
-29.22
-23.95
-17.95
-12.01
-6.73
-2.44
0.81
3.13
4.71
5.74
6.41
6.87
7.22
7.52
7.82
8.13
8.49
8.90
9.35
9.82
10.27
10.64
10.88
10.92
10.68
10.09
9.09
7.70
6.01
4.14
2.25
0.45
-1.22
-2.80
-4.38
-5.99
-7.67
-9.35
-10.96
-12.43
-13.70
-14.80
-15.86
-17.08
-18.70
-20.89
-23.59
-26.42
-28.72
-29.72
-28.81
-25.83
-21.10
-15.37
-9.49
-4.16
0.29
3.82
6.56
8.68
10.23
11.25
11.74
11.81
11.68
11.60
11.77
12.25
12.94
13.60
14.00
14.03
13.70
13.18
12.63
12.17
11.71
11.09
10.11
8.70
6.90
4.92
2.95
1.13
-0.47
-1.90
-3.22
-4.48
-5.75
-7.10
-8.59
-10.26
-12.06
-13.84
-15.42
-16.68
-17.64
-18.51
-19.60
-21.19
-23.37
-25.96
-28.52
-30.44
-31.11
-30.08
-27.14
-22.43
-16.41
-9.85
-3.59
1.65
5.46
7.80
8.96
9.37
9.42
9.37
9.35
9.42
9.63
10.03
10.61
11.30
11.96
12.45
12.66
12.62
12.38
12.03
11.59
11.02
10.25
9.21
7.86
6.23
4.39
2.48
0.63
-1.01
-2.35
-3.44
-4.41
-5.46
-6.78
-8.42
-10.27
-12.06
-13.56
-14.65
-15.43
-16.19
-17.31
-19.07
-21.52
-24.45
-27.35
-29.58
-30.54
-29.76
-27.11
-22.78
-17.27
-11.28
-5.49
-0.49
3.40
6.12
7.80
8.73
9.22
9.55
9.88
10.31
10.86
11.51
12.22
12.94
13.58
14.05
14.27
14.20
13.88
13.40
12.83
12.22
11.58
10.86
10.01
8.96
7.71
6.32
4.90
3.58
2.47
1.55
0.71
-0.21
-1.32
-2.59
-3.86
-4.92
-5.68
-6.21
-6.77
-7.67
-9.05
-10.87
-12.94
-14.97
-16.79
-18.30
-19.55
-20.63
-21.70
-22.97
-24.67
-26.96
-29.74
-32.62
-34.91
-35.79
-34.66
-31.33
-26.12
-19.78
-13.24
-7.35
-2.67
0.60
2.64
3.80
4.55
5.25
6.08
7.01
7.94
8.71
9.27
9.68
10.06
10.47
10.96
11.46
11.91
12.30
12.68
13.10
13.52
13.81
13.79
13.38
12.58
11.60
10.68
10.05
9.83
9.97
10.33
10.70
10.91
10.87
10.54
10.00
9.32
8.59
7.91
7.27
6.66
6.02
5.26
4.32
3.16
1.77
0.18
-1.56
-3.38
-5.18
-6.92
-8.54
-10.08
-11.60
-13.21
-14.93
-16.72
-18.49
-20.17
-21.84
-23.65
-25.76
-28.06
-30.12
-31.26
-30.75
-28.20
-23.74
-17.97
-11.74
-5.81
-0.71
3.34
6.30
8.23
9.25
9.53
9.34
8.98
8.73
8.78
9.17
9.86
10.75
11.74
12.75
13.66
14.38
14.83
14.96
14.85
14.57
14.20
13.79
13.28
12.62
11.77
10.72
9.49
8.17
6.84
5.58
4.42
3.42
2.58
1.88
1.27
0.65
-0.05
-0.90
-1.95
-3.21
-4.68
-6.33
-8.09
-9.87
-11.55
-13.04
-14.34
-15.55
-16.78
-18.17
-19.79
-21.63
-23.67
-25.90
-28.33
-30.86
-33.24
-34.96
-35.41
-34.06
-30.73
-25.71
-19.72
-13.61
-8.14
-3.66
-0.26
2.21
3.89
4.90
5.26
5.09
4.62
4.19
4.09
4.49
5.29
6.27
7.10
7.62
7.81
7.84
7.96
8.32
8.95
9.68
10.29
10.55
10.41
9.87
9.09
8.18
7.22
6.27
5.39
4.68
4.26
4.19
4.45
4.91
5.39
5.74
5.86
5.74
5.42
4.94
4.34
3.68
3.04
2.48
2.05
1.73
1.45
1.03
0.28
-0.99
-2.89
-5.33
-8.02
-10.45
-12.04
-12.26
-10.85
-7.90
-3.82
0.76
5.18
8.90
11.61
13.21
13.76
13.47
12.57
11.36
10.07
8.94
8.10
7.60
7.39
7.33
7.30
7.19
6.98
6.74
6.57
6.54
6.63
6.84
7.13
7.52
8.04
8.63
9.16
9.40
9.14
8.30
6.98
5.43
3.92
2.62
1.54
0.51
-0.69
-2.20
-4.04
-6.06
-8.07
-9.84
-11.28
-12.45
-13.52
-14.67
-16.06
-17.78
-19.75
-21.84
-23.81
-25.35
-26.14
-25.84
-24.21
-21.22
-17.06
-12.17
-7.12
-2.48
1.32
4.12
5.98
7.13
7.82
8.23
8.45
8.45
8.24
7.87
7.48
7.22
7.19
7.43
7.84
8.31
8.74
9.09
9.34
9.51
9.58
9.47
9.12
8.43
7.40
6.08
4.59
3.04
1.50
-0.03
-1.55
-3.06
-4.54
-5.91
-7.08
-8.02
-8.76
-9.38
-10.03
-10.92
-12.22
-14.06
-16.43
-19.11
-21.72
-23.73
-24.61
-24.00
-21.78
-18.10
-13.43
-8.35
-3.51
0.59
3.66
5.68
6.79
7.27
7.37
7.28
7.11
6.95
6.84
6.85
6.99
7.25
7.54
7.78
7.88
7.83
7.66
7.45
7.25
7.12
7.01
6.83
6.37
5.46
4.01
2.05
-0.20
-2.42
-4.27
-5.56
-6.32
-6.74
-7.17
-7.92
-9.21
-11.06
-13.30
-15.56
-17.43
-18.47
-18.37
-16.96
-14.32
-10.69
-6.46
-2.09
1.98
5.40
7.97
9.64
10.53
10.83
10.75
10.47
10.08
9.61
9.10
8.60
8.19
7.98
8.01
8.27
8.63
8.95
9.10
9.03
8.75
8.31
7.76
7.10
6.25
5.16
3.77
2.11
0.29
-1.54
-3.24
-4.74
-6.07
-7.32
-8.63
-10.13
-11.85
-13.71
-15.48
-16.83
-17.42
-16.97
-15.38
-12.72
-9.23
-5.32
-1.41
2.08
4.88
6.87
8.10
8.72
8.95
8.93
8.75
8.43
7.98
7.47
6.99
6.68
6.62
6.81
7.19
7.65
8.07
8.36
8.42
8.18
7.57
6.58
5.28
3.80
2.31
0.95
-0.24
-1.33
-2.47
-3.80
-5.35
-7.02
-8.58
-9.83
-10.62
-11.01
-11.18
-11.46
-12.17
-13.55
-15.58
-18.02
-20.34
-21.93
-22.16
-20.70
-17.56
-13.16
-8.21
-3.44
0.57
3.56
5.56
6.80
7.52
7.88
7.98
7.87
7.68
7.57
7.70
8.18
8.97
9.93
10.91
11.74
12.30
12.51
12.35
11.82
11.03
10.15
9.35
8.73
8.27
7.80
7.15
6.20
4.97
3.63
2.34
1.20
0.24
-0.60
-1.40
-2.18
-2.97
-3.78
-4.60
-5.46
-6.32
-7.14
-7.88
-8.54
-9.20
-9.96
-10.92
-12.18
-13.77
-15.65
-17.63
-19.40
-20.56
-20.67
-19.41
-16.72
-12.80
-8.11
-3.23
1.29
5.01
7.73
9.43
10.30
10.59
10.52
10.28
9.94
9.57
9.24
9.08
9.21
9.64
10.27
10.88
11.29
11.42
11.36
11.22
11.09
10.86
10.31
9.21
7.52
5.44
3.37
1.74
0.78
0.49
0.55
0.57
0.25
-0.55
-1.74
-3.12
-4.52
-5.79
-6.89
-7.84
-8.68
-9.49
-10.38
-11.43
-12.73
-14.26
-15.87
-17.24
-17.95
-17.57
-15.83
-12.76
-8.70
-4.22
0.04
3.59
6.22
7.96
8.98
9.48
9.57
9.31
8.80
8.20
7.76
7.69
8.09
8.89
9.89
10.79
11.40
11.65
11.59
11.39
11.17
10.99
10.82
10.58
10.19
9.60
8.82
7.91
6.89
5.79
4.63
3.43
2.23
1.10
0.08
-0.79
-1.51
-2.13
-2.71
-3.34
-4.15
-5.23
-6.59
-8.16
-9.77
-11.23
-12.41
-13.35
-14.24
-15.38
-17.01
-19.18
-21.62
-23.79
-25.01
-24.68
-22.57
-18.83
-14.00
-8.78
-3.82
0.44
3.83
6.36
8.16
9.34
9.97
10.13
9.85
9.23
8.40
7.58
7.00
6.90
7.38
8.40
9.73
11.10
12.27
13.11
13.64
13.91
13.97
13.81
13.40
12.72
11.84
10.85
9.88
8.98
8.16
7.40
6.68
5.97
5.28
4.62
3.97
3.34
2.74
2.16
1.60
0.98
0.22
-0.80
-2.08
-3.55
-5.02
-6.28
-7.23
-7.90
-8.50
-9.24
-10.30
-11.71
-13.36
-15.09
-16.74
-18.11
-18.99
-19.08
-18.05
-15.68
-12.01
-7.43
-2.61
1.77
5.16
7.38
8.57
9.04
9.15
9.07
8.86
8.48
7.91
7.24
6.64
6.29
6.28
6.55
6.96
7.34
7.59
7.73
7.85
7.99
8.11
8.06
7.65
6.76
5.45
3.96
2.59
1.58
0.96
0.59
0.19
-0.48
-1.46
-2.62
-3.75
-4.68
-5.42
-6.12
-6.98
-8.09
-9.36
-10.55
-11.44
-11.90
-12.04
-12.16
-12.61
-13.69
-15.47
-17.77
-20.14
-21.98
-22.72
-21.94
-19.52
-15.64
-10.75
-5.41
-0.20
4.40
8.04
10.53
11.86
12.17
11.73
10.88
9.95
9.19
8.74
8.62
8.79
9.13
9.50
9.75
9.77
9.58
9.31
9.14
9.24
9.64
10.22
10.68
10.70
10.08
8.80
7.01
4.98
2.97
1.16
-0.39
-1.68
-2.71
-3.48
-3.91
-4.01
-3.85
-3.61
-3.57
-3.97
-4.94
-6.41
-8.11
-9.72
-10.94
-11.65
-11.89
-11.89
-11.94
-12.31
-13.16
-14.52
-16.28
-18.19
-19.84
-20.75
-20.41
-18.49
-14.89
-9.96
-4.31
1.22
5.91
9.27
11.21
11.96
11.91
11.52
11.07
10.74
10.54
10.41
10.30
10.22
10.24
10.44
10.86
11.42
11.98
12.38
12.52
12.41
12.15
11.86
11.60
11.35
11.00
10.42
9.52
8.32
6.95
5.57
4.37
3.45
2.86
2.54
2.43
2.43
2.39
2.14
1.45
0.17
-1.74
-4.13
-6.67
-8.99
-10.78
-11.93
-12.55
-12.95
-13.54
-14.75
-16.88
-19.98
-23.76
-27.58
-30.56
-31.81
-30.73
-27.21
-21.73
-15.15
-8.54
-2.78
1.53
4.22
5.48
5.69
5.36
4.95
4.82
5.15
5.92
6.98
8.07
8.97
9.56
9.87
10.01
10.11
10.27
10.54
10.89
11.25
11.55
11.64
11.40
10.72
9.63
8.28
6.93
5.87
5.22
4.89
4.62
4.09
3.13
1.80
0.37
-0.85
-1.66
-2.10
-2.44
-2.98
-3.87
-5.05
-6.28
-7.27
-7.90
-8.24
-8.51
-8.93
-9.62
-10.56
-11.67
-12.89
-14.19
-15.49
-16.58
-17.07
-16.52
-14.58
-11.26
-6.91
-2.19
2.20
5.72
8.11
9.41
9.86
9.76
9.38
8.90
8.39
7.87
7.34
6.82
6.41
6.20
6.26
6.59
7.14
7.80
8.46
9.00
9.30
9.25
8.77
7.83
6.53
5.00
3.46
2.06
0.95
0.14
-0.39
-0.77
-1.16
-1.74
-2.61
-3.73
-4.94
-5.98
-6.66
-6.97
-7.10
-7.39
-8.11
-9.41
-11.11
-12.87
-14.26
-14.90
-14.58
-13.25
-10.99
-8.00
-4.55
-1.00
2.28
4.99
7.01
8.40
9.33
9.96
10.34
10.38
9.95
9.01
7.67
6.16
4.78
3.72
3.11
3.00
3.40
4.30
5.58
6.98
8.17
8.83
8.79
8.12
7.03
5.77
4.46
3.12
1.66
0.00
-1.82
-3.69
-5.43
-6.98
-8.37
-9.73
-11.20
-12.88
-14.75
-16.67
-18.46
-19.90
-20.77
-20.86
-20.01
-18.10
-15.16
-11.38
-7.14
-2.94
0.78
3.71
5.77
7.12
8.01
8.67
9.24
9.71
10.01
10.08
9.93
9.66
9.42
9.33
9.43
9.71
10.06
10.40
10.66
10.82
10.81
10.60
10.09
9.25
8.07
6.63
5.03
3.44
1.98
0.73
-0.32
-1.24
-2.15
-3.16
-4.30
-5.50
-6.61
-7.51
-8.19
-8.78
-9.51
-10.59
-12.08
-13.83
-15.45
-16.44
-16.35
-14.95
-12.29
-8.69
-4.67
-0.78
2.56
5.16
7.04
8.34
9.23
9.84
10.22
10.41
10.46
10.48
10.54
10.73
11.05
11.43
11.75
11.91
11.86
11.63
11.28
10.92
10.58
10.26
9.85
9.24
8.35
7.19
5.83
4.39
3.01
1.79
0.77
-0.02
-0.63
-1.11
-1.56
-2.08
-2.71
-3.48
-4.35
-5.26
-6.21
-7.21
-8.31
-9.56
-10.94
-12.38
-13.82
-15.24
-16.68
-18.15
-19.61
-20.84
-21.50
-21.18
-19.56
-16.61
-12.56
-7.94
-3.37
0.65
3.80
6.07
7.62
8.70
9.48
10.05
10.43
10.64
10.74
10.81
10.92
11.12
11.35
11.56
11.73
11.83
11.89
11.91
11.86
11.70
11.43
11.06
10.62
10.13
9.53
8.78
7.83
6.75
5.64
4.68
3.98
3.52
3.21
2.90
2.49
1.98
1.41
0.81
0.21
-0.47
-1.30
-2.32
-3.53
-4.86
-6.19
-7.39
-8.39
-9.14
-9.68
-10.12
-10.61
-11.32
-12.36
-13.79
-15.54
-17.41
-19.11
-20.30
-20.64
-19.88
-17.96
-15.02
-11.37
-7.46
-3.68
-0.32
2.51
4.84
6.74
8.25
9.35
10.00
10.26
10.26
10.20
10.20
10.31
10.42
10.42
10.26
10.03
9.93
10.11
10.64
11.41
12.21
12.79
12.95
12.57
11.65
10.26
8.59
6.91
5.48
4.50
3.96
3.68
3.41
2.94
2.22
1.32
0.42
-0.36
-1.05
-1.76
-2.65
-3.80
-5.18
-6.66
-8.06
-9.27
-10.27
-11.07
-11.74
-12.40
-13.15
-14.12
-15.41
-17.02
-18.72
-20.09
-20.58
-19.74
-17.37
-13.69
-9.21
-4.59
-0.42
2.96
5.43
7.05
7.99
8.40
8.47
8.35
8.22
8.20
8.36
8.69
9.09
9.48
9.80
10.04
10.25
10.50
10.83
11.21
11.53
11.69
11.58
11.18
10.56
9.81
9.03
8.28
7.53
6.71
5.81
4.86
3.93
3.13
2.49
1.97
1.48
0.93
0.26
-0.49
-1.27
-1.97
-2.56
-3.03
-3.42
-3.81
-4.33
-5.06
-6.07
-7.40
-8.94
-10.53
-11.97
-13.07
-13.73
-14.03
-14.17
-14.50
-15.31
-16.63
-18.24
-19.62
-20.13
-19.30
-16.99
-13.43
-9.12
-4.65
-0.57
2.78
5.22
6.78
7.58
7.81
7.70
7.45
7.22
7.10
7.13
7.30
7.58
7.94
8.33
8.75
9.18
9.62
10.06
10.46
10.75
10.89
10.85
10.67
10.37
9.97
9.44
8.73
7.85
6.85
5.84
4.94
4.24
3.74
3.38
3.04
2.63
2.08
1.37
0.51
-0.44
-1.38
-2.22
-2.85
-3.28
-3.57
-3.84
-4.26
-4.91
-5.86
-7.04
-8.32
-9.54
-10.57
-11.35
-11.96
-12.52
-13.22
-14.22
-15.55
-17.11
-18.65
-19.78
-20.08
-19.19
-16.91
-13.35
-8.91
-4.21
0.10
3.55
5.94
7.38
8.10
8.37
8.38
8.22
7.94
7.60
7.24
6.95
6.75
6.67
6.71
6.88
7.15
7.49
7.84
8.13
8.29
8.32
8.27
8.21
8.20
8.25
8.27
8.14
7.70
6.89
5.74
4.42
3.19
2.25
1.66
1.38
1.23
1.03
0.66
0.09
-0.64
-1.43
-2.21
-2.91
-3.52
-4.05
-4.59
-5.18
-5.90
-6.74
-7.65
-8.56
-9.39
-10.12
-10.78
-11.49
-12.40
-13.65
-15.25
-16.98
-18.44
-19.10
-18.53
-16.55
-13.34
-9.39
-5.28
-1.52
1.63
4.12
5.99
7.33
8.18
8.59
8.63
8.44
8.14
7.85
7.62
7.42
7.23
7.05
6.92
6.91
7.09
7.49
8.07
8.73
9.34
9.70
9.68
9.19
8.24
6.96
5.62
4.52
3.91
3.81
4.02
4.17
3.90
3.03
1.62
-0.06
-1.67
-2.98
-3.88
-4.43
-4.71
-4.84
-4.96
-5.19
-5.69
-6.54
-7.66
-8.90
-10.02
-10.89
-11.55
-12.22
-13.12
-14.41
-15.97
-17.50
-18.56
-18.73
-17.77
-15.62
-12.43
-8.50
-4.21
-0.01
3.67
6.49
8.26
8.99
8.91
8.32
7.57
6.93
6.53
6.43
6.55
6.86
7.27
7.75
8.27
8.77
9.18
9.43
9.52
9.45
9.29
9.09
8.89
8.65
8.32
7.84
7.23
6.50
5.71
4.88
4.00
3.02
1.93
0.75
-0.44
-1.52
-2.38
-2.94
-3.23
-3.40
-3.65
-4.19
-5.10
-6.31
-7.60
-8.75
-9.59
-10.17
-10.69
-11.45
-12.67
-14.39
-16.41
-18.36
-19.81
-20.36
-19.76
-17.93
-15.00
-11.22
-6.99
-2.71
1.16
4.25
6.31
7.30
7.39
6.95
6.40
6.12
6.29
6.88
7.65
8.34
8.73
8.77
8.60
8.46
8.55
8.93
9.46
9.88
9.95
9.56
8.82
7.94
7.12
6.41
5.75
5.00
4.12
3.18
2.36
1.79
1.47
1.24
0.86
0.15
-0.91
-2.25
-3.70
-5.14
-6.48
-7.68
-8.69
-9.45
-9.92
-10.16
-10.36
-10.81
-11.78
-13.37
-15.44
-17.53
-19.04
-19.44
-18.44
-16.03
-12.49
-8.22
-3.61
0.95
5.14
8.60
11.01
12.18
12.14
11.22
9.95
8.88
8.36
8.47
9.06
9.89
10.72
11.44
11.98
12.34
12.53
12.59
12.59
12.58
12.55
12.39
11.92
11.00
9.61
7.93
6.23
4.80
3.79
3.20
2.90
2.73
2.52
2.11
1.37
0.20
-1.38
-3.21
-5.07
-6.66
-7.81
-8.49
-8.82
-9.04
-9.40
-10.08
-11.21
-12.81
-14.76
-16.82
-18.60
-19.63
-19.48
-17.91
-14.96
-10.98
-6.52
-2.18
1.54
4.38
6.29
7.42
7.97
8.13
8.01
7.64
7.05
6.30
5.55
5.05
5.03
5.62
6.78
8.29
9.84
11.11
11.91
12.15
11.89
11.22
10.25
9.06
7.72
6.30
4.83
3.31
1.71
-0.00
-1.85
-3.82
-5.84
-7.79
-9.51
-10.84
-11.65
-11.91
-11.74
-11.43
-11.36
-11.96
-13.48
-15.88
-18.74
-21.31
-22.70
-22.18
-19.47
-14.77
-8.83
-2.64
2.82
6.84
9.12
9.77
9.17
7.86
6.45
5.52
5.44
6.38
8.15
10.32
12.33
13.70
14.25
14.05
13.40
12.66
12.07
11.74
11.60
11.56
11.48
11.25
10.77
9.96
8.81
7.39
5.90
4.55
3.55
2.95
2.61
2.25
1.59
0.47
-1.09
-2.89
-4.70
-6.34
-7.74
-8.94
-9.94
-10.71
-11.12
-11.11
-10.78
-10.42
-10.32
-10.49
-10.51
-9.56
-6.82
-1.91
4.75
11.99
18.27
22.28
23.43
21.95
18.69
14.72
10.87
7.63
5.13
3.31
2.09
1.38
1.13
1.21
1.42
1.50
1.25
0.61
-0.30
-1.21
-1.82
-1.99
-1.79
-1.46
-1.31
-1.57
-2.28
-3.34
-4.57
-5.82
-6.98
-8.03
-8.96
-9.77
-10.46
-11.08
-11.73
-12.59
-13.83
-15.48
-17.34
-18.98
-19.80
-19.24
-17.03
-13.28
-8.51
-3.46
1.13
4.72
7.11
8.39
8.81
8.67
8.22
7.65
7.11
6.73
6.60
6.78
7.24
7.87
8.51
9.01
9.27
9.27
9.04
8.65
8.14
7.53
6.80
5.93
4.91
3.72
2.33
0.73
-1.05
-2.88
-4.57
-5.93
-6.87
-7.48
-7.99
-8.68
-9.80
-11.39
-13.34
-15.32
-16.96
-17.85
-17.67
-16.28
-13.69
-10.13
-5.98
-1.69
2.34
5.81
8.54
10.51
11.74
12.30
12.27
11.79
11.05
10.29
9.73
9.49
9.55
9.78
10.03
10.15
10.11
9.94
9.71
9.46
9.19
8.86
8.44
7.87
7.11
6.07
4.73
3.06
1.15
-0.86
-2.75
-4.39
-5.72
-6.76
-7.62
-8.41
-9.23
-10.19
-11.35
-12.80
-14.57
-16.60
-18.70
-20.57
-21.76
-21.87
-20.59
-17.85
-13.87
-9.11
-4.18
0.37
4.15
7.04
9.13
10.63
11.68
12.38
12.70
12.67
12.36
11.96
11.66
11.57
11.69
11.87
11.95
11.84
11.53
11.13
10.80
10.65
10.70
10.81
10.78
10.38
9.47
8.07
6.39
4.68
3.17
1.91
0.78
-0.43
-1.87
-3.55
-5.35
-7.08
-8.60
-9.86
-10.92
-11.82
-12.66
-13.49
-14.45
-15.67
-17.26
-19.22
-21.29
-23.00
-23.78
-23.10
-20.70
-16.64
-11.32
-5.41
0.38
5.42
9.27
11.75
12.93
13.13
12.75
12.23
11.88
11.83
12.04
12.36
12.67
12.89
13.07
13.28
13.58
13.98
14.41
14.76
14.88
14.67
14.03
12.94
11.47
9.75
7.98
6.38
5.09
4.13
3.44
2.86
2.22
1.40
0.37
-0.82
-2.05
-3.13
-3.93
-4.42
-4.68
-4.92
-5.37
-6.19
-7.43
-8.93
-10.50
-11.95
-13.17
-14.24
-15.33
-16.62
-18.21
-20.04
-21.86
-23.22
-23.63
-22.67
-20.10
-16.04
-10.89
-5.27
0.17
4.87
8.52
11.02
12.46
13.06
13.12
12.96
12.82
12.85
13.07
13.44
13.87
14.29
14.68
14.99
15.22
15.31
15.26
15.11
14.92
14.72
14.48
14.08
13.39
12.31
10.86
9.17
7.44
5.86
4.56
3.56
2.83
2.27
1.76
1.19
0.49
-0.40
-1.48
-2.72
-4.07
-5.45
-6.83
-8.16
-9.43
-10.60
-11.67
-12.60
-13.40
-14.14
-14.93
-15.99
-17.51
-19.54
-21.89
-24.08
-25.46
-25.42
-23.58
-19.94
-14.86
-8.98
-3.01
2.40
6.80
9.93
11.79
12.58
12.61
12.24
11.71
11.16
10.61
10.08
9.66
9.46
9.61
10.09
10.78
11.53
12.20
12.75
13.18
13.44
13.40
12.90
11.83
10.25
8.40
6.59
5.07
3.90
3.02
2.25
1.44
0.57
-0.32
-1.11
-1.71
-2.17
-2.63
-3.31
-4.36
-5.78
-7.41
-9.00
-10.31
-11.28
-12.01
-12.70
-13.60
-14.89
-16.64
-18.81
-21.20
-23.43
-25.00
-25.36
-24.12
-21.22
-16.98
-12.00
-6.92
-2.28
1.64
4.76
7.11
8.79
9.87
10.46
10.72
10.80
10.82
10.81
10.79
10.71
10.60
10.48
10.40
10.36
10.33
10.27
10.14
9.96
9.75
9.51
9.21
8.76
8.07
7.08
5.78
4.21
2.45
0.65
-1.08
-2.62
-3.93
-5.03
-6.00
-6.86
-7.63
-8.23
-8.62
-8.85
-9.03
-9.38
-10.10
-11.30
-13.00
-15.09
-17.33
-19.34
-20.67
-20.84
-19.48
-16.52
-12.25
-7.21
-2.06
2.63
6.53
9.52
11.60
12.82
13.25
12.99
12.27
11.38
10.60
10.09
9.89
9.93
10.08
10.30
10.59
10.95
11.36
11.73
11.94
11.91
11.55
10.85
9.77
8.34
6.66
4.92
3.35
2.13
1.27
0.64
-0.00
-0.82
-1.86
-3.05
-4.30
-5.51
-6.67
-7.80
-8.87
-9.82
-10.65
-11.45
-12.41
-13.66
-15.18
-16.68
-17.65
-17.58
-16.12
-13.29
-9.42
-5.05
-0.76
3.02
5.99
8.04
9.17
9.48
9.12
8.31
7.34
6.46
5.84
5.55
5.57
5.82
6.23
6.71
7.19
7.55
7.71
7.57
7.14
6.49
5.72
4.90
4.06
3.13
2.09
0.94
-0.25
-1.39
-2.45
-3.44
-4.47
-5.58
-6.77
-7.96
-9.04
-10.01
-10.93
-11.96
-13.22
-14.63
-15.96
-16.82
-16.85
-15.89
-13.95
-11.23
-8.00
-4.49
-0.92
2.52
5.60
8.04
9.62
10.23
9.97
9.09
7.94
6.84
5.99
5.48
5.29
5.38
5.67
6.07
6.48
6.79
6.92
6.87
6.67
6.35
5.91
5.31
4.48
3.43
2.19
0.84
-0.56
-2.00
-3.46
-4.90
-6.19
-7.22
-7.97
-8.55
-9.21
-10.24
-11.76
-13.69
-15.66
-17.18
-17.73
-16.99
-14.87
-11.55
-7.41
-2.96
1.30
4.97
7.79
9.65
10.59
10.71
10.19
9.24
8.05
6.82
5.75
5.03
4.78
5.04
5.74
6.68
7.60
8.24
8.45
8.18
7.53
6.67
5.73
4.81
3.87
2.78
1.45
-0.14
-1.89
-3.58
-4.93
-5.81
-6.22
-6.33
-6.45
-6.82
-7.60
-8.82
-10.40
-12.19
-13.99
-15.49
-16.34
-16.15
-14.66
-11.86
-8.03
-3.69
0.55
4.15
6.83
8.54
9.41
9.66
9.48
9.05
8.53
8.04
7.71
7.59
7.69
7.93
8.22
8.47
8.63
8.72
8.77
8.77
8.67
8.38
7.79
6.87
5.66
4.32
2.99
1.80
0.75
-0.21
-1.19
-2.27
-3.43
-4.60
-5.66
-6.55
-7.27
-7.94
-8.73
-9.81
-11.28
-13.09
-15.05
-16.82
-18.01
-18.24
-17.27
-15.02
-11.62
-7.40
-2.85
1.51
5.20
7.93
9.64
10.45
10.55
10.14
9.35
8.33
7.23
6.31
5.81
5.89
6.54
7.55
8.63
9.50
10.05
10.30
10.36
10.31
10.13
9.75
9.04
7.97
6.59
5.08
3.60
2.34
1.35
0.57
-0.11
-0.86
-1.77
-2.85
-4.07
-5.36
-6.62
-7.79
-8.80
-9.62
-10.26
-10.82
-11.53
-12.60
-14.18
-16.15
-18.09
-19.38
-19.43
-17.88
-14.84
-10.78
-6.38
-2.25
1.24
4.05
6.27
8.02
9.27
9.92
9.86
9.18
8.15
7.18
6.64
6.69
7.19
7.83
8.33
8.55
8.57
8.56
8.63
8.73
8.73
8.51
8.02
7.32
6.52
5.66
4.73
3.70
2.60
1.53
0.66
0.05
-0.35
-0.71
-1.22
-2.01
-3.05
-4.25
-5.46
-6.59
-7.61
-8.53
-9.42
-10.32
-11.30
-12.45
-13.79
-15.28
-16.70
-17.66
-17.69
-16.45
-13.85
-10.13
-5.81
-1.50
2.29
5.29
7.44
8.80
9.49
9.58
9.19
8.49
7.73
7.16
6.96
7.20
7.74
8.40
8.99
9.39
9.58
9.61
9.52
9.33
9.05
8.64
8.10
7.45
6.68
5.81
4.85
3.85
2.83
1.86
0.95
0.08
-0.80
-1.74
-2.72
-3.73
-4.70
-5.60
-6.45
-7.29
-8.14
-9.04
-10.02
-11.14
-12.47
-14.07
-15.93
-17.88
-19.63
-20.77
-20.89
-19.75
-17.29
-13.73
-9.49
-5.09
-1.02
2.39
4.98
6.81
8.03
8.80
9.22
9.33
9.17
8.81
8.41
8.15
8.21
8.62
9.28
9.98
10.53
10.83
10.92
10.90
10.88
10.88
10.79
10.47
9.81
8.80
7.58
6.34
5.25
4.34
3.55
2.75
1.84
0.83
-0.17
-1.03
-1.69
-2.19
-2.69
-3.33
-4.13
-5.02
-5.84
-6.51
-7.08
-7.72
-8.58
-9.72
-11.06
-12.48
-13.89
-15.32
-16.83
-18.35
-19.63
-20.22
-19.67
-17.73
-14.49
-10.34
-5.89
-1.69
1.85
4.58
6.49
7.72
8.38
8.60
8.49
8.17
7.76
7.45
7.37
7.64
8.23
9.05
9.90
10.63
11.11
11.32
11.28
11.06
10.68
10.12
9.36
8.40
7.31
6.22
5.27
4.52
3.99
3.60
3.22
2.76
2.17
1.47
0.73
-0.01
-0.73
-1.44
-2.18
-3.00
-3.90
-4.90
-5.97
-7.08
-8.20
-9.29
-10.33
-11.31
-12.28
-13.33
-14.52
-15.81
-17.03
-17.87
-17.93
-16.86
-14.53
-11.07
-6.88
-2.49
1.56
4.90
7.35
8.96
9.87
10.28
10.37
10.26
10.07
9.88
9.76
9.79
9.97
10.27
10.59
10.84
10.96
10.94
10.87
10.81
10.80
10.80
10.69
10.28
9.48
8.27
6.79
5.29
4.01
3.10
2.55
2.19
1.82
1.29
0.58
-0.19
-0.90
-1.44
-1.86
-2.28
-2.83
-3.61
-4.61
-5.70
-6.73
-7.58
-8.21
-8.69
-9.17
-9.84
-10.85
-12.22
-13.83
-15.39
-16.49
-16.70
-15.73
-13.52
-10.28
-6.43
-2.49
1.03
3.82
5.74
6.88
7.44
7.65
7.69
7.67
7.63
7.58
7.57
7.64
7.84
8.16
8.56
8.98
9.35
9.65
9.88
10.03
10.02
9.76
9.18
8.28
7.16
6.00
4.97
4.17
3.62
3.20
2.79
2.28
1.61
0.81
-0.07
-0.96
-1.84
-2.72
-3.60
-4.50
-5.40
-6.28
-7.10
-7.84
-8.53
-9.23
-10.02
-10.99
-12.16
-13.52
-14.95
-16.29
-17.29
-17.65
-17.10
-15.45
-12.71
-9.12
-5.12
-1.24
2.10
4.61
6.25
7.11
7.36
7.21
6.82
6.37
5.98
5.78
5.78
5.97
6.28
6.62
6.89
7.03
7.02
6.92
6.84
6.90
7.14
7.48
7.71
7.59
6.95
5.80
4.32
2.76
1.36
0.23
-0.60
-1.22
-1.68
-2.01
-2.26
-2.50
-2.86
-3.46
-4.40
-5.66
-7.09
-8.45
-9.51
-10.19
-10.55
-10.78
-11.09
-11.63
-12.36
-13.09
-13.50
-13.21
-11.95
-9.63
-6.40
-2.62
1.22
4.64
7.29
9.03
9.90
10.03
9.63
8.89
7.95
7.00
6.16
5.58
5.32
5.40
5.79
6.39
7.10
7.75
8.22
8.40
8.23
7.74
7.04
6.23
5.43
4.67
3.90
3.05
2.07
1.01
-0.05
-0.95
-1.62
-2.05
-2.35
-2.68
-3.20
-3.97
-4.96
-6.05
-7.08
-7.88
-8.37
-8.54
-8.54
-8.63
-9.09
-10.19
-11.98
-14.23
-16.46
-18.07
-18.50
-17.43
-14.89
-11.23
-6.99
-2.72
1.11
4.23
6.51
8.01
8.82
9.08
8.92
8.46
7.84
7.14
6.50
6.03
5.84
6.02
6.60
7.49
8.53
9.46
10.08
10.28
10.11
9.76
9.38
9.03
8.62
8.00
7.04
5.79
4.39
3.07
1.99
1.17
0.52
-0.08
-0.66
-1.18
-1.55
-1.73
-1.73
-1.68
-1.72
-1.96
-2.42
-3.07
-3.83
-4.62
-5.43
-6.23
-7.03
-7.82
-8.64
-9.56
-10.69
-12.08
-13.67
-15.21
-16.25
-16.35
-15.16
-12.66
-9.14
-5.14
-1.22
2.18
4.82
6.68
7.84
8.36
8.30
7.72
6.78
5.71
4.80
4.30
4.30
4.73
5.39
6.07
6.62
7.05
7.43
7.83
8.21
8.44
8.34
7.78
6.82
5.62
4.43
3.48
2.84
2.46
2.19
1.86
1.33
0.58
-0.33
-1.31
-2.20
-2.89
-3.38
-3.75
-4.13
-4.67
-5.40
-6.26
-7.08
-7.75
-8.21
-8.54
-8.90
-9.42
-10.19
-11.22
-12.49
-13.96
-15.45
-16.69
-17.25
-16.74
-14.90
-11.78
-7.81
-3.60
0.22
3.25
5.38
6.81
7.81
8.61
9.29
9.80
10.04
9.90
9.40
8.65
7.84
7.17
6.80
6.79
7.10
7.64
8.26
8.86
9.31
9.53
9.45
9.01
8.24
7.21
6.05
4.90
3.85
2.98
2.25
1.63
1.03
0.36
-0.46
-1.45
-2.57
-3.72
-4.79
-5.70
-6.44
-7.05
-7.60
-8.14
-8.71
-9.30
-9.92
-10.59
-11.33
-12.18
-13.19
-14.33
-15.51
-16.54
-17.11
-16.86
-15.52
-13.03
-9.59
-5.63
-1.68
1.79
4.51
6.39
7.58
8.27
8.68
8.93
9.03
8.95
8.65
8.21
7.74
7.41
7.36
7.58
7.99
8.39
8.63
8.61
8.40
8.10
7.80
7.51
7.15
6.59
5.76
4.67
3.39
2.04
0.72
-0.49
-1.53
-2.34
-2.90
-3.23
-3.43
-3.64
-4.02
-4.66
-5.50
-6.43
-7.30
-8.01
-8.62
-9.27
-10.16
-11.41
-13.02
-14.76
-16.30
-17.19
-17.08
-15.76
-13.26
-9.84
-5.87
-1.84
1.83
4.80
6.87
8.04
8.45
8.35
8.03
7.70
7.49
7.43
7.49
7.62
7.79
7.97
8.11
8.18
8.15
8.04
7.91
7.84
7.86
7.95
8.00
7.87
7.45
6.68
5.61
4.34
3.06
1.89
0.91
0.08
-0.71
-1.56
-2.51
-3.52
-4.48
-5.32
-6.02
-6.64
-7.25
-7.94
-8.75
-9.73
-10.92
-12.36
-14.00
-15.62
-16.85
-17.26
-16.51
-14.50
-11.43
-7.67
-3.71
0.06
3.35
6.02
8.03
9.39
10.16
10.46
10.42
10.21
9.95
9.75
9.63
9.59
9.64
9.75
9.90
10.03
10.09
10.05
9.93
9.77
9.65
9.58
9.48
9.21
8.60
7.58
6.18
4.62
3.13
1.95
1.19
0.79
0.55
0.20
-0.49
-1.66
-3.26
-5.12
-6.97
-8.54
-9.67
-10.33
-10.66
-10.87
-11.22
-11.92
-13.09
-14.67
-16.38
-17.80
-18.45
-17.91
-16.01
-12.87
-8.87
-4.55
-0.42
3.08
5.71
7.39
8.18
8.26
7.87
7.29
6.74
6.39
6.30
6.43
6.70
6.99
7.25
7.43
7.53
7.59
7.65
7.73
7.82
7.89
7.83
7.52
6.86
5.78
4.35
2.73
1.14
-0.22
-1.26
-2.05
-2.74
-3.49
-4.41
-5.50
-6.67
-7.83
-8.92
-9.92
-10.90
-11.92
-13.04
-14.23
-15.34
-16.12
-16.27
-15.52
-13.74
-11.02
-7.63
-3.96
-0.41
2.69
5.18
7.02
8.27
9.01
9.35
9.36
9.11
8.69
8.25
7.92
7.85
8.09
8.58
9.19
9.71
10.00
9.96
9.61
9.05
8.39
7.68
6.94
6.11
5.15
4.06
2.86
1.61
0.34
-0.92
-2.17
-3.38
-4.49
-5.44
-6.21
-6.84
-7.42
-8.08
-8.94
-10.08
-11.56
-13.35
-15.33
-17.24
-18.67
-19.20
-18.53
-16.58
-13.52
-9.73
-5.66
-1.71
1.78
4.60
6.63
7.91
8.58
8.89
9.13
9.49
10.06
10.80
11.55
12.21
12.69
13.03
13.26
13.45
13.62
13.74
13.80
13.78
13.67
13.43
13.02
12.38
11.48
10.35
9.11
7.95
7.05
6.47
6.10
5.72
5.10
4.13
2.89
1.60
0.50
-0.32
-0.93
-1.53
-2.31
-3.36
-4.61
-5.90
-7.10
-8.16
-9.09
-9.93
-10.72
-11.49
-12.27
-13.13
-14.16
-15.44
-17.02
-18.85
-20.73
-22.30
-23.08
-22.63
-20.66
-17.27
-12.83
-7.98
-3.33
0.62
3.68
5.87
7.34
8.31
8.98
9.52
10.05
10.65
11.29
11.90
12.38
12.67
12.75
12.72
12.66
12.69
12.86
13.17
13.51
13.71
13.60
13.04
12.08
10.87
9.64
8.58
7.80
7.28
6.92
6.62
6.29
5.91
5.44
4.87
4.22
3.54
2.87
2.23
1.58
0.81
-0.17
-1.38
-2.72
-4.00
-5.07
-5.88
-6.50
-7.09
-7.78
-8.60
-9.48
-10.32
-11.03
-11.65
-12.29
-13.10
-14.16
-15.44
-16.80
-18.05
-18.96
-19.30
-18.88
-17.54
-15.19
-11.91
-7.98
-3.86
-0.09
2.93
5.03
6.33
7.13
7.71
8.24
8.75
9.17
9.47
9.68
9.87
10.08
10.30
10.46
10.52
10.49
10.40
10.29
10.17
10.05
9.90
9.66
9.29
8.75
8.02
7.15
6.28
5.60
5.23
5.17
5.26
5.25
4.91
4.17
3.09
1.85
0.63
-0.42
-1.18
-1.56
-1.57
-1.25
-0.79
-0.39
-0.28
-0.60
-1.34
-2.43
-3.73
-5.10
-6.47
-7.77
-9.02
-10.24
-11.49
-12.82
-14.28
-15.78
-17.15
-18.06
-18.14
-17.11
-14.87
-11.58
-7.65
-3.57
0.12
3.08
5.12
6.29
6.79
6.88
6.77
6.63
6.52
6.47
6.48
6.57
6.78
7.09
7.51
8.00
8.53
9.05
9.53
9.91
10.11
10.07
9.73
9.14
8.37
7.49
6.61
5.75
4.95
4.20
3.49
2.79
2.09
1.34
0.54
-0.29
-1.13
-1.92
-2.61
-3.19
-3.65
-4.05
-4.51
-5.16
-6.11
-7.37
-8.82
-10.25
-11.47
-12.36
-12.99
-13.57
-14.33
-15.41
-16.70
-17.82
-18.30
-17.72
-15.90
-12.99
-9.41
-5.62
-2.04
1.08
3.62
5.56
6.85
7.55
7.77
7.72
7.68
7.83
8.21
8.72
9.20
9.56
9.84
10.14
10.52
10.94
11.22
11.21
10.83
10.12
9.27
8.44
7.77
7.26
6.87
6.50
6.07
5.54
4.90
4.18
3.42
2.67
1.97
1.33
0.77
0.27
-0.17
-0.56
-0.92
-1.30
-1.77
-2.37
-3.12
-4.03
-5.07
-6.21
-7.38
-8.49
-9.44
-10.15
-10.60
-10.88
-11.19
-11.75
-12.72
-14.14
-15.78
-17.25
-18.07
-17.84
-16.37
-13.78
-10.42
-6.71
-3.08
0.21
2.99
5.19
6.80
7.80
8.26
8.28
8.04
7.72
7.48
7.38
7.45
7.65
7.94
8.30
8.71
9.16
9.57
9.89
10.02
9.94
9.65
9.24
8.78
8.36
7.96
7.52
6.93
6.13
5.13
4.07
3.11
2.43
2.05
1.90
1.78
1.51
1.03
0.41
-0.19
-0.61
-0.85
-1.07
-1.47
-2.23
-3.39
-4.84
-6.38
-7.83
-9.04
-9.94
-10.57
-10.97
-11.26
-11.57
-12.02
-12.70
-13.62
-14.66
-15.63
-16.23
-16.12
-15.04
-12.92
-9.87
-6.27
-2.60
0.67
3.23
4.97
5.95
6.32
6.29
5.99
5.56
5.13
4.76
4.55
4.52
4.68
4.99
5.47
6.10
6.85
7.68
8.45
9.04
9.34
9.30
8.95
8.41
7.79
7.16
6.55
5.92
5.24
4.44
3.50
2.45
1.30
0.17
-0.85
-1.63
-2.09
-2.23
-2.13
-1.98
-1.94
-2.23
-2.94
-4.06
-5.48
-6.96
-8.27
-9.20
-9.70
-9.86
-9.97
-10.33
-11.21
-12.69
-14.62
-16.64
-18.25
-18.98
-18.48
-16.60
-13.49
-9.51
-5.19
-1.11
2.25
4.64
6.01
6.53
6.49
6.20
5.90
5.75
5.78
5.96
6.23
6.57
6.98
7.45
7.97
8.50
8.94
9.23
9.32
9.26
9.15
9.05
8.99
8.91
8.73
8.40
7.93
7.39
6.81
6.21
5.51
4.66
3.65
2.57
1.55
0.74
0.17
-0.25
-0.65
-1.21
-1.98
-2.95
-3.98
-4.94
-5.76
-6.46
-7.14
-7.91
-8.88
-10.08
-11.47
-13.03
-14.66
-16.29
-17.77
-18.83
-19.12
-18.32
-16.23
-12.92
-8.74
-4.25
-0.05
3.38
5.82
7.26
7.89
7.97
7.76
7.45
7.17
6.96
6.87
6.93
7.18
7.66
8.36
9.15
9.86
10.32
10.41
10.16
9.72
9.24
8.84
8.54
8.25
7.84
7.26
6.52
5.75
5.05
4.48
3.98
3.42
2.66
1.67
0.53
-0.59
-1.55
-2.29
-2.87
-3.41
-4.05
-4.85
-5.82
-6.92
-8.09
-9.28
-10.46
-11.60
-12.68
-13.74
-14.89
-16.25
-17.89
-19.67
-21.29
-22.28
-22.20
-20.82
-18.15
-14.53
-10.42
-6.33
-2.62
0.50
2.97
4.78
5.94
6.50
6.53
6.23
5.84
5.62
5.75
6.26
7.04
7.91
8.70
9.34
9.86
10.35
10.85
11.32
11.65
11.72
11.41
10.73
9.71
8.47
7.12
5.81
4.60
3.57
2.68
1.90
1.13
0.32
-0.57
-1.54
-2.54
-3.57
-4.57
-5.55
-6.50
-7.44
-8.42
-9.47
-10.61
-11.81
-13.01
-14.19
-15.41
-16.77
-18.36
-20.13
-21.84
-23.08
-23.43
-22.57
-20.41
-17.10
-13.00
-8.55
-4.19
-0.35
2.69
4.75
5.85
6.15
5.93
5.48
5.02
4.67
4.48
4.49
4.69
5.11
5.73
6.50
7.31
8.05
8.62
9.03
9.30
9.48
9.61
9.66
9.54
9.15
8.45
7.43
6.19
4.90
3.72
2.76
2.01
1.35
0.60
-0.38
-1.61
-3.01
-4.39
-5.62
-6.63
-7.50
-8.38
-9.40
-10.68
-12.23
-13.97
-15.71
-17.15
-17.87
-17.51
-15.80
-12.75
-8.67
-4.08
0.45
4.43
7.57
9.76
11.06
11.60
11.51
10.99
10.24
9.49
8.97
8.88
9.28
10.12
11.23
12.38
13.35
13.97
14.19
14.08
13.78
13.41
13.02
12.52
11.71
10.41
8.60
6.42
4.18
2.22
0.76
-0.20
-0.83
-1.39
-2.08
-2.99
-4.08
-5.25
-6.36
-7.31
-8.07
-8.75
-9.53
-10.67
-12.38
-14.66
-17.26
-19.68
-21.30
-21.60
-20.28
-17.36
-13.16
-8.19
-3.02
1.80
5.83
8.80
10.64
11.48
11.58
11.28
10.93
10.73
10.80
11.16
11.72
12.39
13.04
13.58
13.92
14.04
13.96
13.75
13.48
13.18
12.80
12.27
11.52
10.50
9.25
7.84
6.35
4.86
3.46
2.24
1.24
0.44
-0.26
-1.06
-2.11
-3.51
-5.15
-6.83
-8.29
-9.36
-9.98
-10.31
-10.56
-10.98
-11.76
-13.01
-14.71
-16.70
-18.65
-20.12
-20.59
-19.69
-17.23
-13.39
-8.63
-3.58
1.16
5.13
8.17
10.30
11.67
12.45
12.79
12.80
12.59
12.33
12.18
12.23
12.50
12.87
13.22
13.45
13.55
13.57
13.55
13.51
13.38
13.07
12.51
11.70
10.72
9.63
8.49
7.29
5.98
4.54
2.99
1.45
0.04
-1.12
-2.01
-2.70
-3.34
-4.10
-5.08
-6.29
-7.60
-8.86
-9.91
-10.74
-11.43
-12.19
-13.25
-14.73
-16.59
-18.60
-20.38
-21.47
-21.48
-20.16
-17.50
-13.73
-9.26
-4.59
-0.16
3.67
6.71
8.91
10.31
11.02
11.20
11.03
10.71
10.38
10.16
10.06
10.06
10.11
10.16
10.19
10.20
10.21
10.23
10.27
10.29
10.22
9.95
9.34
8.30
6.85
5.13
3.39
1.84
0.60
-0.36
-1.21
-2.14
-3.24
-4.52
-5.86
-7.11
-8.17
-8.97
-9.58
-10.08
-10.63
-11.42
-12.60
-14.24
-16.20
-18.11
-19.40
-19.46
-17.86
-14.55
-9.91
-4.67
0.36
4.48
7.40
9.15
10.04
10.47
10.67
10.76
10.73
10.58
10.36
10.21
10.29
10.64
11.17
11.67
11.90
11.71
11.11
10.27
9.42
8.75
8.32
8.03
7.68
7.12
6.27
5.18
3.99
2.79
1.63
0.49
-0.70
-1.96
-3.25
-4.48
-5.56
-6.45
-7.15
-7.74
-8.33
-9.07
-10.05
-11.35
-12.96
-14.87
-16.98
-19.15
-21.19
-22.78
-23.56
-23.17
-21.36
-18.14
-13.79
-8.85
-3.95
0.34
3.68
5.95
7.30
7.99
8.33
8.58
8.94
9.48
10.20
11.04
11.89
12.66
13.28
13.74
14.08
14.37
14.65
14.92
15.07
14.96
14.48
13.57
12.32
10.89
9.49
8.25
7.21
6.33
5.51
4.64
3.69
2.62
1.48
0.31
-0.84
-1.94
-3.01
-4.07
-5.17
-6.29
-7.44
-8.58
-9.70
-10.82
-11.95
-13.16
-14.49
-15.96
-17.57
-19.24
-20.78
-21.89
-22.19
-21.32
-19.08
-15.57
-11.16
-6.39
-1.81
2.17
5.37
7.76
9.43
10.46
10.93
10.96
10.68
10.27
9.93
9.81
10.00
10.46
11.10
11.80
12.46
13.06
13.56
13.94
14.11
14.00
13.56
12.78
11.74
10.55
9.33
8.13
6.99
5.86
4.72
3.55
2.36
1.18
0.03
-1.05
-2.06
-3.02
-3.96
-4.92
-5.92
-6.97
-8.05
-9.10
-10.11
-11.04
-11.89
-12.69
-13.54
-14.56
-15.87
-17.44
-19.04
-20.21
-20.43
-19.28
-16.60
-12.61
-7.81
-2.87
1.57
5.10
7.53
8.93
9.54
9.62
9.38
8.96
8.46
7.94
7.51
7.34
7.52
8.04
8.78
9.48
9.94
10.04
9.83
9.43
8.96
8.50
8.00
7.41
6.61
5.57
4.28
2.85
1.45
0.27
-0.55
-0.99
-1.19
-1.43
-1.98
-3.04
-4.59
-6.40
-8.14
-9.52
-10.38
-10.80
-11.05
-11.49
-12.46
-14.15
-16.47
-19.04
-21.24
-22.48
-22.35
