1499771441.00
64.000000
-0.00
-0.00
-0.00
-0.00
-0.00
-0.00
-0.00
-0.00
-0.00
-0.00
0.00
0.01
0.01
-0.00
-0.03
-0.05
-0.05
0.00
0.13
0.36
0.66
1.01
1.37
1.72
2.06
2.40
2.79
3.24
3.80
4.42
5.06
5.66
6.20
6.68
7.15
7.68
8.31
9.14
10.09
11.04
11.88
12.56
13.14
13.76
14.65
15.96
17.91
20.32
22.90
25.38
27.58
29.57
31.68
34.32
37.81
42.54
48.15
54.10
59.83
64.97
69.58
74.14
79.34
85.71
93.76
103.00
112.62
121.73
129.77
136.75
143.30
150.75
157.77
166.64
177.95
191.79
206.97
220.57
228.25
225.36
208.53
176.87
132.76
80.05
23.07
-34.94
-92.44
-149.16
-205.23
-260.37
-313.74
-363.87
-409.83
-450.91
-486.50
-515.74
-537.23
-549.22
-549.96
-538.37
-514.21
-478.67
-433.88
-382.45
-327.02
-269.84
-212.63
-156.66
-102.95
-52.37
-5.90
35.58
71.43
101.35
125.50
144.38
158.69
169.15
176.37
180.75
182.57
182.07
179.51
175.23
169.65
163.18
156.15
148.81
141.30
133.69
126.02
118.33
110.69
103.16
95.80
88.68
81.83
75.25
68.95
62.95
57.25
51.86
46.78
42.03
37.59
33.45
29.61
26.07
22.81
19.83
17.11
14.67
12.48
10.54
8.83
7.35
6.07
4.97
4.05
3.27
2.62
2.09
1.65
1.30
1.01
0.79
0.61
0.48
0.37
0.29
0.24
0.20
0.18
0.17
0.17
0.19
0.21
0.23
0.27
0.30
0.35
0.39
0.43
0.48
0.53
0.57
0.63
0.68
0.74
0.80
0.87
0.94
1.02
1.11
1.22
1.33
1.45
1.60
1.76
1.93
2.13
2.35
2.59
2.86
3.16
3.48
3.84
4.23
4.66
5.12
5.62
6.15
6.73
7.35
8.01
8.71
9.46
10.26
11.10
11.98
12.91
13.89
14.94
16.04
17.21
18.44
19.72
21.00
22.25
23.39
24.31
24.89
25.02
24.58
23.47
21.63
19.06
15.82
11.97
7.69
3.16
-1.39
-5.75
-9.72
-13.12
-15.83
-17.78
-18.94
-19.36
-19.15
-18.46
-17.42
-16.16
-14.78
-13.33
-11.81
-10.23
-8.56
-6.88
-5.22
-3.61
-2.08
-0.57
0.97
2.61
4.43
6.48
8.62
10.75
12.76
14.63
16.42
18.28
20.37
22.86
25.87
29.09
32.21
35.01
37.39
39.46
41.49
43.86
46.86
50.68
54.70
58.33
61.09
62.76
63.54
63.90
64.53
65.93
68.29
70.67
72.01
71.32
67.96
61.77
52.82
41.00
25.35
8.78
-8.42
-26.61
-46.48
-68.85
-94.36
-123.11
-154.01
-184.36
-210.05
-227.16
-232.63
-225.64
-208.09
-183.92
-157.52
-132.23
-109.61
-89.61
-72.04
-56.74
-43.95
-33.98
-26.74
-21.50
-17.10
-12.54
-7.39
-2.24
1.94
4.32
4.61
3.21
1.04
-0.90
-1.91
-1.90
-1.49
-1.59
-3.00
-6.19
-11.05
-16.91
-22.58
-26.59
-27.53
-24.41
-16.98
-5.84
7.67
21.84
34.98
45.92
54.08
59.41
62.14
62.53
60.77
57.10
51.91
45.89
39.96
35.04
31.69
29.94
29.30
29.03
28.52
27.54
26.28
25.09
24.20
23.54
22.82
21.71
20.00
17.68
14.82
11.45
7.58
3.19
-1.64
-6.65
-11.55
-16.09
-20.21
-24.10
-28.11
-32.66
-38.12
-44.63
-51.99
-59.52
-66.00
-69.83
-69.42
-63.76
-52.91
-38.06
-21.26
-4.70
9.89
21.66
30.61
37.22
41.97
45.14
46.71
46.66
45.09
42.44
39.29
36.24
33.70
31.82
30.52
29.64
29.00
28.50
28.05
27.51
26.71
25.44
23.63
21.34
18.74
15.93
12.85
9.35
5.23
0.44
-4.90
-10.47
-15.98
-21.20
-26.13
-30.89
-35.73
-40.94
-46.79
-53.22
-59.76
-65.39
-68.66
-68.18
-63.03
-53.21
-39.69
-24.08
-8.25
6.23
18.34
27.72
34.48
39.03
41.78
43.05
42.98
41.77
39.61
36.89
34.05
31.52
29.61
28.42
27.94
28.07
28.66
29.39
29.91
29.80
28.75
26.70
23.86
20.58
17.10
13.44
9.45
4.94
-0.12
-5.50
-10.87
-15.93
-20.57
-24.90
-29.17
-33.68
-38.61
-44.15
-50.35
-57.01
-63.50
-68.65
-70.98
-69.08
-62.15
-50.43
-35.17
-18.27
-1.76
12.78
24.50
33.20
39.09
42.55
43.94
43.60
41.92
39.43
36.69
34.19
32.21
30.79
29.69
28.67
27.60
26.55
25.80
25.54
25.75
26.11
26.13
25.38
23.70
21.20
18.13
14.64
10.65
6.04
0.79
-4.86
-10.42
-15.41
-19.66
-23.43
-27.32
-31.93
-37.66
-44.45
-51.86
-59.05
-64.98
-68.47
-68.34
-63.73
-54.42
-41.02
-25.00
-8.27
7.32
20.48
30.63
37.84
42.45
44.84
45.20
43.70
40.64
36.63
32.47
28.94
26.53
25.29
24.92
25.02
25.29
25.57
25.79
25.84
25.58
24.86
23.68
22.17
20.47
18.57
16.22
13.10
9.06
4.24
-0.85
-5.64
-9.78
-13.29
-16.54
-20.05
-24.22
-29.29
-35.27
-41.89
-48.59
-54.39
-58.09
-58.41
-54.42
-45.96
-33.73
-19.15
-4.00
10.13
22.10
31.36
37.77
41.42
42.47
41.13
37.86
33.32
28.36
23.87
20.47
18.32
17.21
16.66
16.25
15.89
15.71
15.94
16.64
17.60
18.35
18.36
17.22
14.82
11.31
7.05
2.54
-1.81
-5.70
-9.04
-12.03
-15.09
-18.69
-23.21
-28.76
-35.08
-41.52
-47.08
-50.55
-50.82
-47.10
-39.27
-28.01
-14.70
-1.04
11.43
21.69
29.40
34.65
37.63
38.44
37.07
33.68
28.78
23.27
18.14
14.14
11.45
9.78
8.53
7.31
6.02
4.95
4.41
4.49
4.85
4.84
3.80
1.36
-2.34
-6.82
-11.45
-15.75
-19.68
-23.56
-27.90
-33.13
-39.37
-46.30
-53.25
-59.15
-62.80
-63.03
-58.97
-50.39
-37.79
-22.45
-6.15
9.24
22.27
32.13
38.74
42.46
43.84
43.31
41.18
37.75
33.43
28.84
24.66
21.42
19.26
17.99
17.19
16.55
15.94
15.41
14.95
14.29
12.94
10.40
6.49
1.46
-4.05
-9.32
-13.84
-17.57
-20.96
-24.82
-30.07
-37.28
-46.36
-56.36
-65.47
-71.52
-72.63
-67.88
-57.60
-43.31
-27.07
-10.91
3.75
16.12
25.96
33.27
38.03
40.33
40.42
38.80
36.26
33.56
31.28
29.57
28.15
26.57
24.46
21.82
19.01
16.58
14.99
14.34
14.30
14.23
13.44
11.43
8.07
3.56
-1.63
-7.00
-12.11
-16.83
-21.26
-25.81
-30.98
-37.24
-44.77
-53.30
-62.00
-69.50
-74.14
-74.38
-69.23
-58.69
-43.75
-26.22
-8.16
8.56
22.71
33.78
41.82
47.19
50.31
51.58
51.38
50.09
48.10
45.78
43.46
41.32
39.44
37.84
36.48
35.30
34.24
33.23
32.17
30.98
29.50
27.60
25.21
22.28
18.87
15.04
10.79
6.15
1.12
-4.24
-9.75
-15.19
-20.34
-25.05
-29.32
-33.26
-37.04
-40.93
-45.30
-50.60
-57.15
-64.85
-72.92
-79.78
-83.39
-81.89
-74.25
-60.79
-43.17
-23.86
-5.33
10.60
23.18
32.57
39.49
44.66
48.54
51.31
52.95
53.51
53.18
52.24
51.03
49.78
48.59
47.51
46.59
45.86
45.34
44.97
44.57
43.88
42.63
40.62
37.79
34.29
30.34
26.21
22.08
18.03
14.04
10.15
6.39
2.87
-0.37
-3.45
-6.58
-9.99
-13.74
-17.64
-21.37
-24.66
-27.50
-30.22
-33.35
-37.33
-42.40
-48.50
-55.35
-62.43
-68.95
-73.78
-75.56
-73.01
-65.40
-53.00
-37.13
-19.77
-2.99
11.68
23.54
32.58
39.16
43.65
46.25
47.12
46.51
44.89
42.88
41.06
39.83
39.22
39.02
38.88
38.51
37.80
36.92
36.15
35.78
35.84
36.05
35.90
34.83
32.50
28.97
24.60
20.00
15.68
11.92
8.73
5.92
3.27
0.59
-2.21
-5.17
-8.26
-11.40
-14.48
-17.45
-20.24
-22.86
-25.39
-27.99
-30.92
-34.58
-39.39
-45.56
-52.83
-60.28
-66.31
-69.13
-67.23
-60.04
-48.08
-32.92
-16.52
-0.75
13.10
24.35
32.77
38.33
41.10
41.20
39.10
35.53
31.44
27.77
25.12
23.67
23.19
23.18
23.20
23.00
22.59
22.22
22.16
22.55
23.19
23.65
23.34
21.80
18.97
15.19
11.13
7.47
4.60
2.50
0.76
-1.14
-3.60
-6.73
-10.35
-14.08
-17.55
-20.56
-23.09
-25.37
-27.75
-30.59
-34.23
-38.67
-43.60
-48.19
-51.25
-51.49
-47.94
-40.32
-29.22
-15.97
-2.16
10.73
21.71
30.31
36.41
40.02
41.16
39.93
36.64
31.94
26.70
21.87
18.13
15.83
14.89
14.93
15.51
16.23
16.87
17.34
17.65
17.75
17.52
16.79
15.40
13.32
10.67
7.71
4.69
1.80
-1.05
-4.06
-7.56
-11.72
-16.43
-21.30
-25.78
-29.46
-32.26
-34.51
-36.86
-40.01
-44.37
-49.91
-55.95
-61.28
-64.39
-63.88
-58.86
-49.26
-35.96
-20.57
-4.98
9.10
20.60
29.11
34.79
38.09
39.46
39.30
37.89
35.54
32.55
29.29
26.10
23.30
21.07
19.50
18.54
18.02
17.71
17.35
16.74
15.84
14.74
13.56
12.39
11.11
9.53
7.43
4.72
1.46
-2.21
-6.11
-10.17
-14.37
-18.69
-23.01
-27.15
-30.94
-34.36
-37.63
-41.13
-45.24
-50.08
-55.24
-59.80
-62.46
-61.91
-57.31
-48.61
-36.56
-22.54
-8.13
5.25
16.62
25.49
31.75
35.62
37.45
37.70
36.83
35.23
33.19
30.88
28.39
25.81
23.26
20.92
18.98
17.57
16.66
16.13
15.76
15.36
14.86
14.25
13.53
12.63
11.30
9.25
6.21
2.16
-2.68
-7.85
-12.88
-17.40
-21.32
-24.71
-27.81
-30.96
-34.43
-38.52
-43.38
-49.00
-54.93
-60.25
-63.58
-63.47
-58.91
-49.75
-36.91
-22.06
-7.09
6.42
17.60
26.20
32.38
36.37
38.30
38.29
36.50
33.29
29.16
24.72
20.57
17.21
15.01
14.10
14.34
15.32
16.51
17.40
17.64
17.14
16.00
14.39
12.45
10.24
7.69
4.76
1.40
-2.31
-6.24
-10.16
-13.91
-17.37
-20.55
-23.51
-26.38
-29.31
-32.47
-36.08
-40.33
-45.16
-50.11
-54.20
-56.11
-54.56
-48.82
-39.08
-26.41
-12.49
0.96
12.71
22.16
29.28
34.27
37.23
38.13
36.91
33.75
29.24
24.27
19.78
16.46
14.52
13.71
13.54
13.48
13.17
12.50
11.59
10.66
9.92
9.43
9.01
8.28
6.81
4.35
1.00
-2.86
-6.66
-9.93
-12.54
-14.68
-16.74
-19.12
-22.15
-26.03
-30.83
-36.35
-41.99
-46.60
-48.79
-47.26
-41.41
-31.64
-19.20
-5.82
6.89
17.85
26.53
32.77
36.55
37.86
36.82
33.80
29.52
24.82
20.52
17.11
14.73
13.19
12.16
11.34
10.55
9.78
9.14
8.80
8.80
8.96
8.87
8.04
6.05
2.87
-1.18
-5.50
-9.49
-12.80
-15.52
-18.09
-21.19
-25.40
-30.89
-37.24
-43.36
-47.79
-49.11
-46.39
-39.51
-29.26
-16.99
-4.26
7.58
17.60
25.26
30.26
32.53
32.17
29.53
25.23
20.03
14.71
9.79
5.59
2.20
-0.35
-2.04
-2.84
-2.81
-2.13
-1.09
-0.08
0.58
0.59
-0.24
-2.00
-4.65
-7.99
-11.75
-15.61
-19.41
-23.26
-27.54
-32.75
-39.18
-46.50
-53.65
-58.94
-60.60
-57.37
-49.01
-36.43
-21.37
-5.80
8.59
20.75
30.20
36.81
40.61
41.74
40.46
37.35
33.20
28.91
25.23
22.53
20.81
19.77
19.04
18.34
17.57
16.79
16.06
15.39
14.55
13.11
10.66
7.02
2.37
-2.76
-7.74
-12.16
-16.03
-19.79
-24.10
-29.56
-36.44
-44.48
-52.84
-60.17
-64.85
-65.35
-60.79
-51.18
-37.59
-21.89
-6.11
8.12
19.96
29.31
36.43
41.50
44.47
45.22
43.85
40.90
37.25
33.79
31.09
29.21
27.83
26.57
25.16
23.68
22.30
21.22
20.47
19.91
19.25
18.12
16.13
12.95
8.45
2.90
-3.13
-8.88
-13.75
-17.62
-20.93
-24.49
-29.15
-35.47
-43.47
-52.50
-61.38
-68.49
-72.12
-70.85
-64.05
-52.06
-36.22
-18.57
-1.27
13.92
25.95
34.56
40.12
43.33
44.96
45.62
45.64
45.12
43.95
42.06
39.52
36.66
33.96
31.86
30.66
30.39
30.78
31.41
31.76
31.39
30.01
27.57
24.31
20.53
16.59
12.62
8.61
4.41
-0.06
-4.73
-9.37
-13.72
-17.66
-21.27
-24.78
-28.51
-32.75
-37.76
-43.70
-50.45
-57.42
-63.47
-67.04
-66.63
-61.27
-50.98
-36.81
-20.53
-4.08
10.91
23.49
33.30
40.37
44.88
47.04
47.12
45.53
42.90
39.94
37.30
35.42
34.36
33.95
33.92
34.04
34.23
34.51
34.91
35.30
35.45
35.09
33.96
31.96
29.14
25.71
21.97
18.27
14.88
11.83
8.92
5.73
1.81
-3.10
-8.89
-15.06
-20.94
-25.94
-29.78
-32.57
-34.76
-37.00
-39.92
-44.10
-49.74
-56.58
-63.59
-69.09
-71.12
-68.10
-59.50
-46.13
-29.92
-13.20
2.04
14.70
24.58
31.97
37.25
40.57
41.98
41.58
39.75
37.15
34.51
32.35
30.88
30.01
29.54
29.35
29.46
29.95
30.84
31.87
32.64
32.64
31.56
29.34
26.23
22.66
19.07
15.80
12.99
10.57
8.28
5.70
2.50
-1.51
-6.19
-11.15
-15.85
-19.91
-23.18
-25.84
-28.28
-30.97
-34.35
-38.71
-44.04
-49.88
-55.21
-58.58
-58.48
-53.82
-44.42
-31.13
-15.65
0.05
14.25
25.85
34.39
39.91
42.74
43.23
41.78
38.81
34.79
30.25
25.80
22.02
19.42
18.30
18.66
20.11
22.03
23.73
24.67
24.66
23.84
22.55
21.10
19.61
17.94
15.81
12.92
9.10
4.45
-0.78
-6.14
-11.16
-15.49
-18.93
-21.59
-23.81
-26.11
-29.03
-33.02
-38.22
-44.38
-50.73
-56.02
-58.76
-57.64
-51.91
-41.70
-28.12
-12.85
2.22
15.57
26.37
34.42
40.01
43.52
45.22
45.15
43.33
39.93
35.39
30.45
25.90
22.37
20.13
19.10
18.95
19.30
19.86
20.38
20.68
20.55
19.86
18.52
16.57
14.14
11.38
8.38
5.14
1.73
-1.77
-5.15
-8.26
-11.07
-13.72
-16.50
-19.73
-23.66
-28.41
-33.95
-39.98
-45.84
-50.43
-52.33
-50.11
-42.91
-30.77
-14.77
3.27
21.37
37.89
51.73
62.22
68.95
71.54
69.79
63.74
53.84
41.11
26.93
12.91
0.55
-9.08
-15.62
-19.51
-21.90
-24.26
-27.71
-32.63
-38.51
-44.21
-48.57
-50.91
-51.11
-49.46
-46.36
-41.95
-36.14
-28.78
-19.79
-9.27
2.39
14.66
26.97
38.50
48.37
55.65
59.59
59.92
57.07
52.40
47.98
46.13
48.65
56.07
67.39
80.28
91.93
100.05
103.46
102.20
97.04
88.75
77.75
64.11
48.06
30.34
12.19
-4.95
-20.08
-33.04
-44.56
-56.03
-69.09
-85.08
-104.45
-126.47
-149.11
-169.41
-184.24
-191.20
-189.38
-179.87
-165.60
-150.84
-140.29
-137.83
-145.41
-162.33
-185.23
-208.98
-228.34
-239.73
-242.21
-237.58
-229.14
-220.07
-212.11
-205.15
-197.78
-188.45
-176.54
-162.80
-149.02
-137.05
-127.81
-120.75
-113.94
-104.84
-91.29
-72.30
-48.37
-21.37
5.97
30.47
48.97
58.97
59.22
50.40
35.43
19.14
7.18
4.51
13.75
34.21
61.96
90.86
114.48
128.03
129.68
120.85
105.25
87.33
70.75
57.49
47.87
41.22
36.67
33.57
31.54
30.25
29.35
28.48
27.38
25.97
24.30
22.48
20.43
18.00
15.04
11.75
8.97
8.21
11.15
18.89
31.20
46.10
60.35
70.46
74.08
70.80
62.27
51.34
40.87
32.86
28.06
26.34
27.13
29.85
34.07
39.41
45.46
51.48
56.43
59.11
58.45
53.89
45.79
35.42
24.53
14.71
6.69
0.18
-5.60
-11.08
-15.51
-16.93
-12.86
-1.63
16.72
40.12
65.33
89.05
108.74
122.49
128.24
123.45
105.82
74.99
34.20
-9.57
-47.28
-70.82
-75.67
-61.84
-32.57
7.93
56.31
110.21
167.01
222.50
270.76
305.78
323.75
324.74
312.59
293.16
271.92
252.20
234.82
218.78
202.80
186.28
169.54
153.41
138.67
125.65
114.37
104.74
96.78
90.60
86.27
83.65
82.26
81.50
80.70
79.25
76.72
72.87
67.64
61.26
54.20
47.07
40.45
34.61
29.48
24.71
19.90
14.90
9.88
5.25
1.40
-1.54
-3.80
-5.92
-8.41
-11.65
-15.64
-20.09
-24.50
-28.43
-31.59
-33.90
-35.53
-36.83
-38.22
-40.06
-42.46
-45.23
-47.81
-49.42
-49.38
-47.41
-43.71
-39.04
-34.35
-30.46
-27.74
-26.18
-25.58
-25.90
-27.43
-30.65
-35.89
-42.95
-51.12
-59.46
-67.27
-74.48
-81.71
-90.09
-100.74
-114.49
-131.67
-152.33
-176.52
-204.43
-236.34
-272.06
-310.28
-348.12
-381.28
-404.90
-414.89
-409.13
-387.84
-353.37
-309.39
-260.30
-210.82
-165.63
-128.81
-102.75
-87.18
-78.82
-72.48
-63.04
-47.62
-26.74
-3.76
16.83
31.60
39.52
42.03
41.99
42.27
44.56
48.84
53.66
56.76
56.19
51.14
42.37
32.01
22.71
16.51
14.21
15.32
18.76
23.78
30.39
39.09
50.09
62.50
74.29
82.90
86.41
84.47
78.54
71.38
66.01
64.66
68.24
76.26
87.33
99.75
112.12
123.79
134.84
145.84
157.40
169.60
181.54
191.20
195.43
190.24
171.68
137.36
88.32
30.17
-27.51
-73.75
-100.02
-103.47
-87.73
-60.89
-31.78
-6.63
12.17
24.96
32.71
35.67
33.65
27.46
19.89
15.04
16.34
24.33
35.89
45.56
47.69
38.58
17.47
-13.51
-49.89
-85.23
-111.83
-122.20
-111.29
-78.83
-30.24
24.72
75.24
113.15
135.16
142.53
138.93
128.15
113.02
95.84
79.42
67.42
63.29
68.52
81.46
97.79
112.23
120.55
120.74
112.88
98.30
78.90
56.98
35.42
17.57
6.37
3.20
6.88
13.61
17.93
14.31
-1.00
-28.75
-66.13
-107.30
-144.75
-171.23
-181.40
-172.76
-145.44
-101.54
-44.69
19.62
83.48
136.96
170.45
178.22
161.28
127.27
87.21
50.56
21.77
-0.03
-18.11
-34.55
-48.23
-55.84
-54.67
-45.09
-30.95
-17.74
-10.16
-10.36
-18.08
-31.76
-49.67
-70.29
-92.05
-113.18
-131.86
-146.47
-155.95
-159.99
-159.18
-154.95
-149.39
-144.58
-141.46
-138.81
-133.06
-119.41
-94.29
-58.10
-16.34
21.73
46.74
53.31
42.44
20.84
-2.34
-19.56
-27.38
-26.79
-21.20
-13.92
-6.56
1.11
10.06
20.79
32.90
45.52
57.95
70.22
82.83
96.12
109.72
122.14
131.05
133.93
128.98
115.88
96.11
72.55
48.56
26.95
9.07
-5.29
-17.49
-29.03
-40.67
-51.90
-61.14
-66.43
-66.26
-60.38
-49.99
-37.34
-25.05
-15.25
-9.02
-6.29
-6.18
-7.55
-9.50
-11.56
-13.56
-15.42
-16.92
-17.68
-17.23
-15.32
-11.94
-7.33
-1.84
4.26
10.82
17.68
24.59
31.15
36.85
41.25
44.19
45.83
46.58
46.88
46.90
46.45
44.92
41.52
35.55
26.86
15.98
4.12
-7.10
-16.15
-22.03
-24.46
-23.93
-21.46
-18.30
-15.62
-14.39
-15.21
-18.33
-23.62
-30.58
-38.50
-46.62
-54.29
-61.03
-66.56
-70.68
-73.27
-74.28
-73.86
-72.43
-70.70
-69.51
-69.69
-71.78
-75.96
-82.02
-89.42
-97.43
-105.27
-112.21
-117.73
-121.56
-123.79
-124.79
-125.03
-124.82
-123.91
-121.46
-116.12
-106.50
-91.80
-72.34
-49.70
-26.43
-5.25
11.73
23.61
30.79
34.60
36.58
37.88
38.92
39.48
39.08
37.35
34.20
29.98
25.44
21.85
20.92
24.48
33.71
48.28
65.87
82.59
94.24
97.94
93.38
83.05
71.22
62.39
59.69
64.03
74.05
86.79
98.72
106.69
108.70
104.21
94.08
80.08
64.32
48.75
34.90
23.84
16.17
11.87
10.10
9.05
6.23
-0.85
-13.83
-32.84
-56.29
-81.32
-104.71
-123.84
-137.36
-145.22
-148.22
-147.43
-143.65
-137.34
-128.90
-118.93
-108.24
-97.50
-86.67
-74.85
-60.52
-42.35
-19.92
5.94
33.46
60.45
84.86
104.87
118.78
125.08
122.77
112.10
95.18
75.73
58.09
45.85
40.49
41.16
45.25
49.52
51.16
48.40
40.80
29.13
15.33
2.03
-8.19
-13.60
-13.96
-10.34
-4.46
2.20
9.02
15.96
22.91
29.11
33.25
34.08
31.25
25.67
19.02
12.84
7.70
3.03
-2.38
-9.67
-19.45
-31.53
-45.20
-59.39
-72.80
-83.92
-91.17
-93.12
-88.90
-78.43
-62.44
-42.23
-19.25
5.11
29.64
53.24
74.77
92.98
106.57
114.41
115.91
111.31
101.91
89.94
78.13
69.02
64.22
63.96
67.05
71.29
74.16
73.49
68.00
57.48
42.69
25.15
6.73
-10.77
-25.90
-37.84
-46.35
-51.75
-54.66
-55.82
-55.84
-55.09
-53.49
-50.60
-45.82
-38.63
-28.96
-17.37
-5.01
6.65
16.20
22.57
25.20
24.01
19.30
11.67
1.99
-8.64
-19.02
-28.02
-34.79
-38.98
-40.68
-40.39
-38.74
-36.34
-33.68
-31.13
-28.99
-27.52
-26.90
-27.13
-27.98
-29.09
-30.08
-30.82
-31.54
-32.76
-35.04
-38.57
-42.92
-46.96
-49.11
-47.85
-42.26
-32.30
-18.90
-3.64
11.63
25.15
35.64
42.39
45.31
44.81
41.68
36.81
31.06
25.04
19.13
13.54
8.48
4.24
1.17
-0.44
-0.54
0.60
2.47
4.46
6.04
6.91
7.02
6.52
5.67
4.74
3.94
3.29
2.64
1.58
-0.38
-3.61
-8.07
-13.10
-17.48
-19.76
-18.74
-13.87
-5.53
5.07
16.28
26.42
34.10
38.48
39.24
36.54
31.00
23.56
15.41
7.71
1.41
-2.93
-5.29
-6.07
-5.95
-5.66
-5.72
-6.36
-7.53
-8.95
-10.35
-11.54
-12.49
-13.33
-14.25
-15.35
-16.64
-18.02
-19.35
-20.60
-21.96
-23.73
-26.19
-29.34
-32.70
-35.32
-35.99
-33.61
-27.66
-18.40
-6.84
5.53
17.15
26.80
33.82
38.11
39.99
39.91
38.30
35.47
31.72
27.44
23.16
19.40
16.59
14.81
13.89
13.44
13.13
12.75
12.29
11.81
11.33
10.75
9.88
8.53
6.61
4.18
1.38
-1.62
-4.71
-7.91
-11.35
-15.13
-19.26
-23.40
-26.89
-28.84
-28.46
-25.28
-19.40
-11.40
-2.18
7.28
16.12
23.76
29.78
33.88
35.83
35.50
32.98
28.67
23.25
17.63
12.68
8.99
6.72
5.66
5.43
5.63
6.06
6.63
7.26
7.79
7.95
7.49
6.28
4.30
1.69
-1.38
-4.78
-8.45
-12.39
-16.55
-20.76
-24.62
-27.48
-28.56
-27.17
-23.04
-16.46
-8.31
0.33
8.42
15.29
20.67
24.47
26.64
27.07
25.65
22.43
17.80
12.51
7.40
3.30
0.66
-0.49
-0.57
-0.19
0.08
-0.07
-0.63
-1.35
-2.02
-2.59
-3.27
-4.44
-6.42
-9.32
-13.07
-17.44
-22.14
-26.87
-31.19
-34.54
-36.20
-35.53
-32.16
-26.27
-18.52
-9.94
-1.57
5.85
11.98
16.84
20.52
22.95
23.89
23.01
20.24
15.87
10.65
5.49
1.22
-1.76
-3.47
-4.25
-4.47
-4.35
-3.96
-3.32
-2.62
-2.21
-2.54
-3.96
-6.59
-10.22
-14.40
-18.63
-22.45
-25.62
-27.99
-29.33
-29.26
-27.24
-22.80
-15.81
-6.71
3.57
13.82
22.99
30.45
36.10
40.14
42.83
44.21
44.12
42.47
39.39
35.46
31.53
28.43
26.59
25.86
25.59
25.00
23.59
21.42
19.10
17.44
17.07
18.19
20.43
22.94
24.54
24.01
20.28
12.79
1.80
-11.43
-24.78
-35.69
-41.91
-42.16
-36.55
-26.55
-14.44
-2.67
6.84
13.08
15.96
16.17
14.71
12.60
10.50
8.72
7.24
5.87
4.48
2.99
1.42
-0.18
-1.84
-3.68
-5.86
-8.49
-11.50
-14.67
-17.65
-20.08
-21.72
-22.54
-22.67
-22.35
-21.84
-21.36
-21.09
-21.18
-21.76
-22.92
-24.65
-26.73
-28.85
-30.65
-31.93
-32.75
-33.37
-34.06
-34.80
-35.11
-34.13
-30.92
-24.85
-15.88
-4.66
7.66
19.75
30.44
38.91
44.80
48.17
49.39
49.04
47.73
46.08
44.59
43.65
43.49
44.13
45.41
46.88
48.00
48.30
47.52
45.70
43.10
40.05
36.74
33.21
29.36
25.12
20.56
15.83
11.12
6.51
1.99
-2.47
-6.86
-11.02
-14.71
-17.74
-20.01
-21.63
-22.77
-23.62
-24.30
-24.86
-25.42
-26.22
-27.57
-29.73
-32.67
-35.87
-38.35
-38.95
-36.66
-31.04
-22.40
-11.69
-0.23
10.64
19.85
26.72
31.00
32.72
32.15
29.72
26.01
21.63
17.18
13.15
9.87
7.44
5.86
4.89
4.21
3.26
1.43
-1.91
-7.17
-14.37
-23.19
-32.83
-42.22
-50.14
-55.31
-56.75
-53.92
-46.98
-36.81
-24.81
-12.51
-1.26
8.04
14.88
19.02
20.34
18.82
14.68
8.49
1.20
-6.06
-12.13
-16.06
-17.21
-15.28
-10.35
-2.84
6.49
16.58
26.32
34.73
41.14
45.22
46.79
45.77
42.09
35.93
27.96
19.48
12.18
7.62
6.58
8.71
12.72
16.94
20.03
21.46
21.46
20.66
19.59
18.55
17.66
17.09
17.23
18.51
21.16
24.91
29.02
32.41
34.11
33.58
30.90
26.70
21.89
17.30
13.39
10.16
7.27
4.26
0.92
-2.65
-6.05
-8.66
-9.90
-9.24
-6.21
-0.40
8.52
20.74
36.28
54.86
75.75
97.62
118.40
135.49
146.22
148.66
142.36
128.82
111.19
93.28
78.34
68.00
61.87
57.70
52.19
41.88
24.01
-2.46
-36.17
-72.97
-106.55
-130.18
-139.12
-132.63
-114.41
-91.36
-70.78
-57.97
-54.96
-60.70
-72.58
-88.17
-106.05
-125.60
-146.16
-166.16
-183.54
-196.68
-204.47
-206.74
-204.14
-197.63
-187.79
-174.57
-157.19
-135.28
-110.04
-82.93
-55.32
-28.37
-2.80
21.03
42.74
62.40
79.51
92.46
100.91
105.99
109.45
113.22
118.97
127.85
141.11
158.60
177.48
194.98
208.91
217.37
219.33
214.82
199.26
172.75
146.34
123.96
104.97
89.77
78.61
71.38
67.52
65.99
66.41
68.09
68.99
68.38
66.72
64.48
61.91
59.02
55.63
52.28
49.29
45.75
41.46
36.74
31.53
25.43
17.75
7.71
-4.94
-20.55
-40.12
-63.94
-91.43
-121.33
-151.74
-180.36
-204.93
-223.58
-235.50
-241.27
-241.93
-238.52
-232.00
-222.93
-211.48
-197.50
-180.67
-160.91
-138.68
-114.98
-91.09
-68.48
-48.29
-31.04
-16.56
-4.16
7.13
18.24
29.97
42.83
56.97
72.02
87.00
100.40
110.64
116.56
117.80
114.79
108.48
99.76
89.14
76.67
62.33
46.28
29.19
12.18
-3.58
-17.13
-28.02
-36.23
-42.05
-45.96
-48.58
-50.61
-52.67
-55.19
-58.14
-61.15
-63.57
-64.83
-64.74
-63.64
-62.33
-61.76
-62.54
-64.54
-66.72
-67.39
-64.72
-57.47
-45.50
-29.92
-12.65
4.26
19.41
32.36
43.40
52.93
60.85
66.33
68.10
65.02
56.69
43.65
27.22
8.92
-9.89
-28.49
-46.56
-64.01
-80.53
-95.43
-107.64
-116.03
-119.83
-118.97
-114.19
-106.70
-97.66
-87.78
-77.12
-65.50
-52.98
-40.41
-29.19
-20.78
-15.87
-14.02
-13.78
-13.51
-12.08
-9.38
-6.14
-3.22
-1.13
0.24
1.36
2.54
3.65
4.14
3.44
1.32
-1.84
-5.24
-7.96
-9.28
-8.89
-6.82
-3.41
0.98
6.00
11.33
16.66
21.60
25.82
29.03
31.07
31.95
31.79
30.73
28.87
26.22
22.67
18.08
12.35
5.70
-1.29
-7.52
-11.56
-12.03
-8.09
0.07
11.20
23.27
34.13
42.25
47.18
49.49
50.28
50.54
50.69
50.52
49.58
47.69
45.15
42.64
40.80
39.83
39.34
38.57
36.79
33.61
29.06
23.43
16.95
9.76
1.87
-6.53
-15.00
-22.87
-29.46
-34.30
-37.36
-38.96
-39.49
-39.14
-37.63
-34.32
-28.38
-19.21
-6.76
8.35
24.97
41.77
57.46
71.03
81.78
89.28
93.30
93.86
91.23
85.97
78.81
70.56
61.97
53.64
46.00
39.27
33.40
28.19
23.27
18.36
13.37
8.50
4.18
0.85
-1.29
-2.40
-2.92
-3.40
-4.24
-5.61
-7.44
-9.62
-12.00
-14.43
-16.64
-18.23
-18.74
-17.83
-15.42
-11.78
-7.47
-3.19
0.39
2.75
3.56
2.73
0.29
-3.51
-8.32
-13.57
-18.73
-23.35
-27.24
-30.53
-33.57
-36.75
-40.26
-44.05
-47.70
-50.58
-52.23
-52.88
-53.44
-55.13
-58.73
-63.90
-69.24
-72.39
-70.84
-62.89
-48.32
-28.45
-5.62
17.57
38.80
55.96
67.84
74.70
78.41
82.10
89.10
101.62
119.44
139.56
155.91
162.59
156.58
138.70
112.64
83.06
54.05
28.11
6.23
-14.08
-35.15
-57.39
-79.32
-98.90
-114.55
-124.67
-127.55
-121.38
-108.78
-92.81
-75.43
-57.40
-39.88
-25.28
-16.26
-15.38
-24.45
-49.26
-92.54
-151.09
-216.17
-277.61
-327.53
-361.52
-379.38
-354.51
-275.92
-155.74
-24.40
91.09
179.66
242.69
286.47
314.67
330.98
329.96
307.34
264.30
207.48
144.27
78.37
21.18
-19.05
-39.45
-48.09
-54.34
-63.07
-72.55
-77.64
-74.01
-67.63
-57.76
-46.94
-43.51
-53.71
-79.29
-118.21
-167.94
-228.41
-291.42
-351.61
-389.15
-390.02
-349.76
-277.31
-190.06
-105.29
-34.21
15.84
51.37
78.05
97.36
110.35
119.15
128.19
142.39
165.72
199.82
242.23
284.69
314.25
318.66
291.60
236.29
165.02
94.73
40.53
10.29
2.47
7.94
16.12
19.84
17.33
10.67
2.55
-6.20
-19.91
-41.74
-71.94
-106.84
-140.87
-169.12
-189.16
-201.29
-207.80
-211.87
-214.57
-215.48
-213.06
-205.53
-191.84
-172.18
-147.86
-120.39
-93.13
-67.28
-42.55
-17.70
8.65
37.07
66.87
96.31
123.13
145.47
163.39
178.39
192.99
210.06
231.69
258.04
286.57
311.95
327.02
325.25
302.53
259.06
200.17
135.38
75.94
31.83
9.27
9.55
29.83
64.34
106.28
149.12
187.49
217.38
236.40
243.82
240.55
228.79
211.20
190.19
167.39
143.51
118.57
92.21
63.85
33.00
-0.11
-34.06
-66.03
-92.17
-108.94
-114.48
-109.59
-97.49
-82.61
-68.95
-58.88
-52.95
-50.33
-49.50
-48.99
-47.93
-46.45
-45.89
-48.70
-57.66
-74.66
-99.55
-129.90
-161.91
-191.92
-217.90
-239.98
-259.72
-278.54
-296.24
-310.49
-317.49
-313.30
-295.41
-263.95
-221.89
-174.36
-127.78
-88.06
-59.25
-42.66
-36.69
-37.40
-39.93
-40.11
-35.85
-27.50
-16.88
-5.31
8.01
25.80
50.36
80.68
110.90
132.07
136.33
121.57
93.24
62.22
39.62
31.63
37.48
51.36
66.75
80.17
92.31
105.98
123.19
143.49
163.99
181.22
193.05
199.41
201.84
202.43
202.70
203.24
203.86
204.16
204.17
204.69
207.17
213.19
223.27
235.73
246.21
248.58
237.06
208.71
164.79
110.48
52.85
-1.72
-49.31
-88.80
-120.83
-146.56
-166.69
-180.99
-188.47
-187.68
-177.34
-157.42
-130.13
-100.23
-74.02
-56.89
-50.66
-52.21
-54.41
-49.13
-30.94
0.64
41.17
83.54
120.87
148.69
165.39
171.62
168.95
159.10
143.72
124.61
103.88
83.69
65.60
49.74
34.49
16.88
-6.56
-38.30
-78.93
-127.17
-180.75
-237.94
-298.08
-360.67
-423.39
-480.82
-525.47
-550.67
-554.06
-538.83
-511.77
-479.28
-443.51
-401.54
-348.04
-279.39
-196.46
-104.23
-8.93
84.72
174.39
258.36
333.45
394.31
435.04
452.20
446.60
423.10
388.12
347.24
304.00
260.74
220.52
187.94
168.10
164.10
174.83
194.53
214.90
228.63
232.59
228.94
223.84
224.18
234.16
253.41
277.14
298.04
308.89
304.72
283.79
247.39
198.81
142.06
80.96
18.81
-41.60
-98.10
-149.25
-194.78
-235.70
-273.99
-311.76
-350.23
-389.20
-426.95
-461.07
-489.44
-511.13
-526.95
-539.42
-552.02
-567.82
-587.73
-609.11
-625.87
-630.07
-614.96
-577.87
-521.65
-453.60
-382.60
-315.90
-257.15
-206.49
-162.16
-122.43
-86.30
-53.27
-22.25
9.01
43.38
83.43
130.62
185.28
246.77
313.41
381.96
446.83
500.47
534.89
544.31
527.42
487.74
431.72
365.69
293.65
217.61
140.11
66.58
5.34
-35.59
-52.78
-49.90
-36.35
-22.41
-14.03
-10.33
-5.20
8.47
34.33
71.30
115.32
162.60
211.71
263.08
316.68
369.98
417.81
454.26
475.25
480.29
472.31
456.02
435.89
414.60
392.83
369.75
343.83
313.48
277.27
234.18
184.05
128.15
69.55
12.90
-36.56
-74.02
-96.07
-101.03
-88.94
-61.45
-21.95
24.35
70.80
110.36
137.19
148.29
144.25
128.82
107.23
84.19
62.40
42.30
22.89
2.90
-18.09
-39.42
-59.81
-78.22
-94.78
-111.06
-129.70
-153.51
-184.65
-224.32
-272.98
-330.46
-395.58
-465.44
-534.72
-596.21
-642.17
-666.68
-667.10
-644.33
-601.52
-542.34
-470.18
-388.69
-303.08
-220.53
-149.17
-95.37
-61.18
-43.09
-33.41
-23.58
-7.86
14.35
38.54
57.09
62.86
52.66
29.15
0.63
-21.58
-27.21
-11.13
24.63
71.47
117.72
152.65
169.29
165.54
143.14
105.87
57.87
2.79
-56.25
-116.06
-173.03
-223.07
-261.99
-286.50
-295.12
-289.08
-271.89
-248.28
-222.20
-195.29
-166.71
-134.06
-95.45
-50.84
-2.26
47.20
94.57
137.93
176.40
209.85
238.55
262.74
282.54
297.72
307.49
310.30
304.33
288.09
261.10
224.20
179.46
129.74
78.26
28.12
-17.88
-57.54
-89.33
-112.53
-127.20
-134.12
-134.72
-131.01
-125.39
-120.38
-118.07
-119.39
-123.79
-129.43
-134.08
-136.16
-135.46
-133.08
-130.70
-129.65
-130.29
-132.06
-133.99
-135.39
-136.27
-137.08
-138.11
-138.87
-137.73
-132.11
-119.16
-96.42
-62.77
-19.30
30.15
79.29
120.81
148.71
160.56
158.55
148.65
138.16
132.83
135.10
144.09
157.25
172.21
187.89
204.22
221.04
237.22
250.57
258.68
259.90
254.07
242.39
226.82
209.27
191.05
172.60
153.62
133.59
112.19
90.25
70.08
55.50
50.69
58.27
77.57
104.00
130.47
150.24
159.81
160.11
155.38
150.85
150.22
154.49
162.20
170.53
175.70
173.24
158.38
127.45
80.42
22.94
-33.63
-75.49
-91.78
-79.63
-46.05
-5.32
26.77
38.86
27.35
-4.16
-48.70
-100.35
-156.74
-218.40
-285.37
-354.13
-416.81
-463.47
-486.40
-483.72
-460.37
-425.83
-389.86
-358.78
-334.13
-313.42
-292.66
-268.45
-239.08
-204.39
-165.31
-123.51
-81.24
-41.53
-7.98
15.26
24.01
15.06
-12.12
-53.72
-100.70
-140.02
-158.38
-147.17
-106.77
-47.25
15.04
63.77
88.72
88.69
70.15
42.65
14.20
-11.48
-34.39
-55.60
-74.83
-89.63
-96.65
-93.86
-82.22
-65.27
-47.24
-30.91
-16.91
-4.83
5.07
10.77
9.22
-1.54
-20.25
-42.11
-60.54
-70.02
-68.45
-57.46
-40.83
-22.09
-3.04
16.19
35.74
54.65
70.66
81.18
84.62
81.20
72.81
62.23
52.18
44.97
42.28
45.43
55.58
73.73
100.67
136.61
180.64
230.21
280.92
327.06
363.02
385.08
392.70
388.26
375.64
358.22
337.95
315.80
293.25
273.27
259.70
255.40
260.12
269.72
277.36
275.88
260.32
228.93
182.92
125.24
59.66
-9.34
-76.17
-134.01
-175.89
-196.59
-195.10
-175.58
-146.43
-117.30
-95.37
-82.55
-75.12
-66.06
-48.84
-20.91
15.29
53.56
86.77
109.46
118.89
114.62
97.24
67.71
27.54
-20.39
-71.40
-119.44
-158.33
-183.33
-192.29
-185.96
-167.37
-140.88
-110.99
-81.55
-55.23
-33.29
-15.77
-1.86
9.51
19.33
28.20
36.46
44.31
51.90
59.41
66.86
73.96
80.11
84.50
86.28
84.87
80.07
72.09
61.51
49.15
36.05
23.43
12.84
5.84
3.59
6.05
11.45
16.37
16.45
7.81
-11.72
-41.73
-79.45
-120.61
-160.74
-196.39
-225.78
-248.94
-266.99
-281.12
-291.49
-296.59
-293.38
-278.26
-248.47
-203.35
-145.08
-78.40
-9.64
54.77
109.70
152.59
184.00
207.28
227.44
249.21
275.03
303.88
331.57
352.57
362.53
360.43
349.04
333.57
319.19
308.71
301.50
293.98
281.40
259.90
227.88
186.40
138.42
87.69
37.59
-9.34
-51.38
-87.19
-115.57
-135.54
-147.01
-151.13
-150.56
-148.80
-149.22
-154.12
-164.52
-180.91
-203.86
-234.02
-271.01
-312.00
-351.28
-381.49
-396.23
-392.75
-373.11
-343.08
-309.50
-277.60
-249.71
-225.58
-203.97
-183.96
-165.37
-148.31
-132.35
-116.40
-99.03
-79.30
-57.26
-33.80
-10.37
11.89
32.58
52.26
72.34
94.69
120.86
151.25
184.62
217.94
247.15
268.32
278.87
278.18
267.41
248.60
223.70
194.13
160.98
125.64
90.29
57.67
30.35
10.04
-2.84
-9.02
-10.00
-7.68
-4.05
-0.98
-0.31
-3.90
-13.68
-31.52
-58.37
-93.05
-131.14
-164.88
-184.88
-183.50
-158.52
-115.12
-64.73
-20.64
7.45
17.42
15.02
10.58
14.20
32.02
65.07
110.50
163.45
218.18
268.05
305.50
323.03
315.59
283.20
231.93
172.43
116.19
71.43
40.75
21.62
8.76
-2.93
-16.49
-32.74
-51.12
-70.70
-90.56
-109.55
-126.05
-138.06
-143.87
-143.07
-137.10
-129.05
-122.44
-119.47
-119.71
-119.80
-114.55
-98.81
-69.51
-27.17
23.98
76.92
123.52
156.64
171.92
169.18
152.46
129.05
107.04
92.52
87.47
89.06
91.00
86.06
68.82
37.71
-4.65
-52.45
-98.67
-137.13
-163.84
-177.53
-179.07
-170.52
-154.35
-132.99
-108.98
-85.08
-64.25
-48.89
-39.92
-36.24
-35.09
-33.45
-29.72
-24.48
-19.83
-17.70
-18.20
-18.94
-15.88
-5.27
14.47
41.70
71.92
99.25
118.23
125.30
119.32
101.48
74.21
40.13
1.34
-40.94
-85.96
-132.86
-180.05
-224.85
-263.78
-293.22
-310.24
-313.27
-302.51
-279.76
-247.94
-210.21
-169.16
-126.17
-81.37
-34.36
14.83
64.87
113.01
155.78
190.12
214.33
228.42
233.74
232.17
225.35
214.26
199.29
180.59
158.35
133.03
105.41
76.57
47.73
19.95
-6.31
-31.36
-56.20
-81.91
-108.85
-136.24
-162.32
-184.98
-202.60
-214.25
-219.30
-216.71
-204.82
-182.06
-148.30
-105.92
-59.74
-15.66
21.43
49.18
67.94
79.67
86.63
90.90
95.07
102.98
119.43
148.07
188.60
234.95
276.01
299.28
295.86
264.35
211.83
151.03
95.44
54.28
29.97
18.65
13.17
7.03
-2.95
-15.88
-28.25
-36.34
-38.06
-32.94
-20.81
-0.43
30.34
72.49
123.32
175.25
217.53
239.98
237.15
210.33
166.51
115.00
63.86
17.96
-20.81
-51.89
-74.75
-88.91
-94.72
-94.06
-90.02
-85.71
-82.89
-81.56
-80.49
-78.43
-75.10
-71.34
-68.48
-67.25
-67.27
-67.20
-65.56
-61.55
-55.59
-48.96
-43.16
-39.21
-37.38
-37.33
-38.61
-40.98
-44.40
-48.86
-53.92
-58.56
-61.42
-61.23
-57.45
-50.45
-41.43
-31.91
-23.26
-16.31
-11.31
-8.18
-6.73
-6.82
-8.33
-11.00
-14.46
-18.22
-21.87
-25.21
-28.29
-31.28
-34.35
-37.54
-40.70
-43.61
-46.14
-48.29
-50.29
-52.54
-55.47
-59.48
-64.79
-71.40
-78.99
-86.69
-92.96
-95.78
-93.21
-84.06
-68.58
-48.56
-26.70
-5.75
12.37
26.77
37.17
43.22
44.32
39.82
29.96
16.44
2.36
-8.74
-14.12
-12.80
-5.74
4.89
16.65
27.52
36.17
41.91
44.41
43.79
40.52
35.54
30.08
25.28
21.92
20.31
20.34
21.77
24.48
28.55
34.24
41.88
51.75
63.91
77.97
92.92
107.13
118.64
125.60
126.89
122.53
113.69
102.29
90.36
79.42
70.02
61.82
53.81
44.89
34.41
22.53
10.34
-0.50
-8.41
-12.58
-13.56
-13.04
-13.27
-16.03
-21.95
-30.29
-39.45
-47.81
-54.24
-58.21
-59.50
-57.81
-52.80
-44.22
-32.27
-17.67
-1.58
14.62
29.45
41.41
49.20
52.09
50.33
45.38
39.58
35.42
34.39
36.43
39.96
42.69
42.69
39.14
32.42
23.73
14.38
5.36
-2.88
-10.18
-16.55
-21.90
-26.13
-29.20
-31.23
-32.59
-33.74
-35.05
-36.63
-38.21
-39.17
-38.79
-36.57
-32.49
-27.13
-21.46
-16.41
-12.50
-9.59
-7.13
-4.55
-1.80
0.64
2.00
1.82
0.28
-1.71
-3.05
-2.98
-1.59
0.29
1.49
1.18
-0.76
-3.82
-7.16
-10.12
-12.44
-14.31
-16.09
-18.19
-20.89
-24.29
-28.28
-32.45
-36.04
-37.96
-37.04
-32.41
-23.87
-12.06
1.65
15.50
27.85
37.49
43.85
46.90
46.99
44.70
40.65
35.54
30.06
24.82
20.22
16.38
13.08
9.91
6.47
2.58
-1.68
-6.03
-10.10
-13.66
-16.63
-19.14
-21.39
-23.58
-25.84
-28.17
-30.49
-32.65
-34.53
-36.06
-37.24
-38.01
-38.25
-37.61
-35.67
-32.04
-26.60
-19.69
-12.07
-4.75
1.31
5.49
7.64
8.03
7.15
5.55
3.66
1.74
-0.03
-1.50
-2.46
-2.70
-2.05
-0.59
1.44
3.55
5.22
6.08
5.99
5.11
3.76
2.24
0.72
-0.83
-2.54
-4.62
-7.12
-10.00
-12.97
-15.65
-17.60
-18.42
-17.85
-15.86
-12.60
-8.40
-3.73
0.90
5.02
8.26
10.41
11.38
11.23
10.02
7.87
4.93
1.48
-2.07
-5.24
-7.57
-8.78
-8.88
-8.15
-7.02
-5.90
-5.10
-4.79
-4.99
-5.69
-6.80
-8.19
-9.71
-11.22
-12.67
-14.19
-16.07
-18.64
-22.05
-26.11
-30.18
-33.37
-34.81
-34.05
-31.27
-27.22
-22.92
-19.34
-16.98
-15.87
-15.68
-16.01
-16.64
-17.64
-19.23
-21.61
-24.74
-28.15
-30.96
-32.01
-30.14
-24.56
-15.27
-3.34
9.06
19.16
24.42
23.52
16.93
6.79
-3.85
-12.18
-16.59
-17.19
-15.50
-13.74
-13.79
-16.40
-20.80
-24.74
-25.08
-18.76
-4.04
18.51
45.64
72.05
91.89
100.50
95.69
78.26
51.48
20.24
-10.13
-34.74
-49.85
-53.22
-44.24
-23.48
7.92
48.73
97.38
151.04
204.57
250.50
280.56
288.47
272.59
236.75
188.78
137.28
88.38
44.01
2.36
-40.19
-86.69
-138.05
-192.65
-246.81
-295.82
-334.95
-360.57
-370.99
-367.11
-352.00
-330.09
-305.98
-283.16
-263.51
-247.22
-233.28
-220.12
-206.11
-189.87
-170.46
-147.47
-120.90
-91.08
-58.51
-23.49
14.16
55.29
100.86
151.07
204.05
255.18
297.66
324.56
331.65
319.77
295.27
268.18
248.62
243.02
251.91
270.13
289.23
300.86
299.45
283.47
254.91
218.00
177.67
138.70
105.04
79.51
63.27
55.17
51.75
47.92
38.65
20.85
-5.46
-37.28
-70.07
-99.63
-123.55
-141.70
-155.68
-167.49
-178.14
-186.74
-190.32
-184.57
-165.38
-130.58
-81.39
-22.88
37.18
90.33
129.86
152.40
158.16
149.84
131.20
105.95
77.07
46.78
16.44
-13.86
-45.42
-81.05
-124.57
-179.82
-248.95
-330.92
-420.62
-509.31
-586.52
-642.67
-671.86
-673.24
-650.67
-610.70
-560.00
-503.40
-443.40
-380.99
-316.95
-252.94
-191.29
-134.28
-83.08
-37.41
4.11
43.17
80.76
116.83
150.08
178.92
202.20
219.94
233.56
245.52
258.86
276.63
301.57
335.54
378.63
428.13
478.44
522.34
553.44
568.63
569.20
559.76
545.76
531.06
516.55
500.71
481.22
456.50
426.55
392.78
357.57
323.89
294.92
273.51
261.17
256.97
257.01
255.49
246.47
226.04
193.79
152.87
108.90
67.89
34.20
9.41
-7.74
-20.23
-31.31
-43.21
-56.82
-72.22
-89.39
-108.65
-130.46
-154.81
-181.02
-207.91
-234.41
-260.02
-284.58
-307.48
-326.84
-339.41
-341.62
-331.22
-308.72
-277.71
-243.80
-212.67
-188.30
-172.15
-163.42
-160.23
-160.60
-162.86
-165.32
-165.86
-161.80
-150.66
-131.25
-104.56
-73.76
-43.20
-16.76
3.46
17.59
27.35
34.70
40.72
45.24
47.29
46.10
41.86
35.84
29.91
25.73
24.05
24.46
25.64
25.93
23.94
18.88
10.72
-0.05
-12.67
-26.38
-40.59
-54.85
-68.89
-82.47
-95.44
-107.60
-118.65
-127.99
-134.78
-138.01
-136.84
-131.04
-121.17
-108.66
-95.41
-83.31
-73.81
-67.62
-64.74
-64.69
-66.66
-69.63
-72.40
-73.70
-72.33
-67.47
-58.97
-47.36
-33.84
-19.88
-6.76
4.80
14.87
24.17
33.66
43.97
55.01
65.85
74.95
80.63
81.62
77.41
68.48
56.20
42.61
30.04
20.69
16.22
17.52
24.67
37.04
53.56
72.91
93.71
114.58
134.30
151.85
166.46
177.55
184.49
186.55
182.82
172.57
155.67
132.85
105.83
76.86
48.19
21.55
-2.06
-22.29
-39.22
-53.06
-64.10
-72.68
-79.31
-84.59
-89.11
-93.19
-96.73
-99.22
-99.89
-98.12
-93.64
-86.82
-78.53
-69.97
-62.38
-56.85
-54.14
-54.65
-58.31
-64.50
-71.89
-78.60
-82.46
-81.70
-75.39
-63.88
-48.60
-31.59
-14.87
0.09
12.54
22.30
29.47
34.20
36.59
36.87
35.45
33.04
30.45
28.46
27.49
27.55
28.34
29.46
30.72
32.25
34.39
37.43
41.46
46.23
51.28
56.20
60.73
64.84
68.63
72.24
75.77
79.35
83.09
87.16
91.73
96.91
102.81
109.54
117.28
126.07
135.76
145.88
155.64
164.19
170.93
175.76
179.08
181.72
184.54
188.06
192.14
195.81
197.44
195.20
187.69
174.44
156.04
133.93
109.79
84.96
60.13
35.45
11.06
-12.62
-34.73
-54.27
-70.50
-83.26
-92.94
-100.18
-105.46
-108.86
-110.13
-108.96
-105.32
-99.73
-93.17
-86.83
-81.77
-78.57
-77.29
-77.56
-78.81
-80.58
-82.76
-85.63
-89.63
-95.18
-102.28
-110.36
-118.27
-124.48
-127.47
-126.14
-120.18
-110.25
-97.82
-84.81
-73.03
-63.61
-56.85
-52.23
-48.82
-45.65
-42.06
-37.76
-32.82
-27.48
-21.96
-16.29
-10.25
-3.44
4.50
13.53
23.03
31.81
38.63
42.72
44.38
44.94
46.34
50.30
57.68
68.09
79.97
90.95
98.23
99.03
91.07
72.98
44.82
8.37
-33.23
-76.23
-117.63
-156.28
-193.25
-230.97
-271.35
-313.89
-354.76
-387.80
-406.95
-409.06
-395.28
-370.46
-340.63
-310.17
-280.29
-249.48
-215.68
-178.44
-139.83
-103.65
-73.40
-50.53
-33.89
-20.63
-7.81
6.23
21.37
36.26
49.25
59.41
66.78
72.15
76.45
80.19
83.25
85.00
84.77
82.24
77.67
71.80
65.56
59.66
54.38
49.60
45.03
40.50
36.08
32.08
28.80
26.35
24.58
23.35
22.77
23.46
26.46
32.85
43.22
57.26
73.56
89.89
103.84
113.47
117.85
117.21
112.59
105.40
96.99
88.37
80.13
72.51
65.46
58.65
51.53
43.38
33.48
21.34
7.08
-8.33
-22.95
-34.21
-39.66
-37.93
-29.50
-16.80
-3.47
7.01
12.56
13.18
10.56
7.10
4.64
3.73
3.64
2.98
0.50
-4.28
-10.88
-17.95
-23.75
-26.75
-26.18
-22.30
-16.30
-9.72
-3.78
1.11
5.29
9.38
13.56
17.09
18.52
16.21
9.12
-2.67
-17.70
-33.28
-45.71
-50.91
-45.48
-28.00
-0.16
32.97
63.99
85.13
90.60
78.34
50.47
12.51
-28.43
-65.52
-93.71
-110.28
-114.75
-108.30
-93.29
-73.04
-51.77
-34.51
-26.51
-31.77
-51.36
-82.23
-117.38
-147.76
-165.28
-165.61
-149.45
-121.71
-89.36
-58.74
-33.81
-15.82
-4.20
2.15
3.91
1.30
-5.43
-15.36
-26.70
-37.24
-45.11
-49.50
-50.82
-50.31
-49.28
-48.49
-47.85
-46.61
-43.96
-39.41
-33.12
-25.75
-18.12
-10.87
-4.36
1.33
6.25
10.38
13.54
15.38
15.51
13.76
10.44
6.56
3.84
4.42
10.21
22.18
39.94
61.67
84.72
106.37
124.70
138.77
148.60
154.55
156.90
155.69
150.86
142.70
132.09
120.44
109.30
99.90
92.78
87.76
84.24
81.58
79.37
77.58
76.41
76.11
76.76
78.23
80.16
82.04
83.32
83.40
81.83
78.22
72.37
64.28
54.18
42.69
30.99
20.79
14.13
12.84
17.90
28.98
44.47
61.94
78.93
93.56
104.79
112.15
115.35
114.01
107.81
96.86
81.97
64.60
46.44
28.86
12.57
-2.26
-15.80
-28.22
-39.59
-50.05
-60.00
-70.09
-81.10
-93.58
-107.64
-122.83
-138.35
-153.35
-167.22
-179.84
-191.58
-203.10
-214.94
-227.10
-238.72
-248.14
-253.42
-253.05
-246.73
-235.59
-221.86
-208.13
-196.49
-188.13
-183.25
-181.34
-181.09
-180.34
-176.03
-164.89
-144.68
-115.51
-80.29
-43.84
-10.91
15.87
36.92
55.01
73.43
94.19
117.16
140.66
162.73
182.27
199.25
213.98
226.39
235.67
240.76
241.22
237.88
232.88
228.97
228.40
231.96
238.74
246.59
253.04
256.22
255.25
249.91
239.95
224.43
201.83
170.97
132.46
89.67
48.45
15.33
-5.13
-12.35
-9.92
-3.95
-0.21
-2.02
-9.49
-20.55
-32.41
-42.66
-49.34
-50.85
-46.30
-36.56
-25.12
-17.76
-20.48
-36.40
-63.62
-95.11
-121.11
-132.73
-124.93
-98.09
-57.52
-11.61
30.57
61.49
76.80
75.96
61.74
39.01
12.94
-12.24
-33.70
-49.65
-58.76
-60.08
-53.41
-39.91
-22.18
-3.63
12.75
25.40
34.51
41.37
47.59
54.22
61.27
67.85
72.52
73.81
70.74
63.20
52.15
39.55
27.81
19.14
14.79
14.62
17.18
20.34
22.12
21.47
18.52
14.29
10.02
6.57
4.11
2.24
0.52
-1.14
-2.19
-1.69
1.23
6.88
14.75
23.57
31.72
37.86
41.29
42.23
41.61
40.61
39.98
39.76
39.23
37.33
33.08
25.95
15.91
3.23
-11.58
-27.77
-44.20
-59.32
-71.45
-79.21
-82.02
-80.27
-75.07
-67.76
-59.29
-49.99
-39.70
-28.24
-15.71
-2.72
9.86
21.23
31.00
39.33
46.78
53.85
60.58
66.25
69.64
69.34
64.37
54.51
40.47
23.94
7.34
-6.54
-15.13
-16.88
-11.99
-2.58
7.84
15.44
17.47
13.12
3.65
-8.45
-20.54
-30.83
-38.76
-44.79
-49.73
-54.06
-57.59
-59.42
-58.29
-53.23
-44.01
-31.37
-16.78
-1.86
12.11
24.52
35.25
44.33
51.61
56.64
58.95
58.36
55.26
50.55
45.26
40.22
35.74
31.60
27.25
22.16
16.09
9.29
2.39
-3.80
-8.72
-12.29
-15.04
-17.82
-21.49
-26.51
-32.70
-39.36
-45.61
-50.78
-54.70
-57.72
-60.50
-63.71
-67.82
-72.98
-79.08
-85.62
-91.75
-96.21
-97.62
-94.83
-87.45
-76.03
-62.02
-47.18
-33.07
-20.63
-10.14
-1.58
5.07
9.70
12.08
12.16
10.23
6.89
2.90
-1.07
-4.56
-7.35
-9.42
-10.85
-11.67
-11.86
-11.38
-10.17
-8.33
-6.14
-4.13
-2.89
-2.98
-4.61
-7.59
-11.38
-15.23
-18.52
-20.94
-22.60
-23.95
-25.60
-28.14
-31.97
-37.13
-43.19
-49.20
-53.86
-55.77
-53.89
-47.82
-38.03
-25.69
-12.29
0.75
12.39
22.07
29.56
34.85
37.98
39.04
38.28
36.11
33.16
30.13
27.59
25.87
24.92
24.45
24.08
23.50
22.66
21.69
20.77
19.91
18.91
17.34
14.78
10.99
6.16
0.80
-4.32
-8.50
-11.30
-12.74
-13.26
-13.64
-14.79
-17.49
-22.18
-28.76
-36.45
-43.87
-49.21
-50.66
-46.82
-37.16
-22.13
-3.09
18.08
39.36
59.05
75.89
89.16
98.54
104.04
105.88
104.47
100.39
94.36
87.13
79.37
71.57
63.93
56.43
48.94
41.41
33.93
26.72
20.01
13.87
8.15
2.56
-3.13
-8.92
-14.49
-19.31
-22.84
-24.74
-25.04
-24.10
-22.56
-21.22
-20.93
-22.39
-25.97
-31.47
-38.05
-44.30
-48.59
-49.58
-46.59
-39.81
-30.22
-19.20
-8.18
1.76
9.98
16.20
20.45
22.83
23.55
22.83
20.98
18.35
15.34
12.30
9.47
6.97
4.78
2.85
1.18
-0.17
-1.11
-1.61
-1.81
-2.00
-2.56
-3.82
-5.89
-8.63
-11.72
-14.77
-17.56
-20.04
-22.38
-24.94
-28.09
-32.10
-36.96
-42.21
-46.96
-49.99
-50.18
-46.85
-40.04
-30.53
-19.55
-8.43
1.81
10.54
17.46
22.48
25.52
26.59
25.78
23.37
19.81
15.64
11.39
7.46
4.07
1.31
-0.82
-2.37
-3.37
-3.81
-3.81
-3.56
-3.37
-3.61
-4.50
-6.08
-8.13
-10.34
-12.44
-14.33
-16.11
-18.01
-20.36
-23.44
-27.43
-32.19
-37.21
-41.50
-43.79
-42.92
-38.27
-30.09
-19.51
-8.14
2.45
11.14
17.49
21.56
23.67
24.15
23.16
20.83
17.32
13.01
8.46
4.28
0.97
-1.20
-2.32
-2.67
-2.67
-2.62
-2.72
-2.99
-3.40
-3.93
-4.60
-5.49
-6.67
-8.19
-10.06
-12.29
-14.94
-18.07
-21.79
-26.04
-30.51
-34.50
-37.01
-37.04
-33.93
-27.70
-19.13
-9.49
-0.13
7.94
14.25
18.80
21.77
23.31
23.38
21.92
18.97
14.86
10.15
5.57
1.75
-0.92
-2.36
-2.78
-2.53
-2.04
-1.64
-1.57
-1.93
-2.71
-3.83
-5.17
-6.66
-8.30
-10.15
-12.33
-14.96
-18.09
-21.70
-25.70
-29.80
-33.47
-35.95
-36.42
-34.24
-29.26
-21.94
-13.25
-4.35
3.75
10.46
15.58
19.15
21.24
21.83
20.90
18.52
14.97
10.78
6.59
3.00
0.39
-1.08
-1.57
-1.34
-0.79
-0.26
0.02
-0.03
-0.35
-0.84
-1.43
-2.13
-3.07
-4.37
-6.11
-8.28
-10.83
-13.76
-17.09
-20.70
-24.17
-26.69
-27.23
-24.91
-19.46
-11.42
-1.97
7.47
15.71
22.15
26.69
29.57
31.09
31.35
30.38
28.20
24.98
21.11
17.12
13.54
10.76
8.91
7.89
7.46
7.33
7.27
7.12
6.79
6.19
5.25
3.91
2.16
0.07
-2.29
-4.85
-7.66
-10.81
-14.38
-18.30
-22.21
-25.42
-27.07
-26.40
-23.00
-17.04
-9.28
-0.78
7.39
14.40
19.85
23.63
25.83
26.51
25.71
23.46
19.92
15.48
10.74
6.54
3.54
2.12
2.02
2.70
3.53
4.01
3.89
3.14
2.03
0.82
-0.32
-1.56
-3.08
-5.07
-7.60
-10.79
-14.71
-19.12
-23.65
-27.72
-30.99
-32.78
-32.43
-29.40
-23.75
-16.14
-7.02
3.02
13.31
22.22
28.75
32.39
33.32
31.75
28.00
23.81
20.97
20.72
21.47
21.99
21.49
20.20
18.38
16.48
16.97
22.09
32.94
46.04
58.73
69.48
78.85
87.60
96.64
109.50
129.38
158.11
191.62
226.58
260.33
291.91
319.91
327.49
302.83
242.31
176.61
122.14
86.79
63.89
49.40
39.27
30.09
22.34
17.81
18.38
20.98
23.75
25.76
27.77
29.87
31.74
34.97
41.09
50.92
61.12
69.20
73.38
73.00
66.53
51.99
28.93
-1.98
-38.78
-80.17
-122.93
-162.95
-196.09
-220.12
-234.84
-240.83
-239.38
-232.09
-221.67
-210.25
-199.52
-190.25
-182.68
-176.32
-169.95
-162.30
-152.58
-140.97
-127.66
-112.41
-94.26
-72.17
-45.69
-15.41
17.16
50.36
82.81
113.27
139.93
159.75
168.65
162.83
140.40
102.58
53.73
0.43
-49.83
-89.83
-113.88
-119.36
-107.99
-86.10
-62.99
-47.63
-44.98
-54.11
-69.34
-83.79
-93.30
-98.29
-102.58
-110.17
-122.17
-135.89
-146.01
-147.37
-137.38
-116.84
-89.36
-59.85
-33.22
-13.48
-3.19
-2.89
-10.55
-21.40
-28.68
-25.75
-8.56
22.45
62.19
102.77
136.51
158.66
168.44
168.33
162.04
152.74
142.25
131.45
121.14
112.51
106.78
104.47
104.87
105.90
104.87
99.52
89.02
74.26
57.62
41.94
29.38
20.61
14.62
9.25
2.35
-7.22
-19.03
-31.30
-41.77
-48.87
-52.43
-53.79
-55.18
-58.60
-64.99
-73.96
-84.25
-94.60
-104.29
-113.09
-120.71
-126.25
-128.15
-125.13
-117.24
-106.66
-97.50
-94.29
-100.15
-115.32
-136.94
-160.04
-179.44
-191.55
-195.17
-191.32
-182.03
-169.01
-153.03
-133.86
-110.69
-82.74
-49.50
-10.83
32.45
78.15
122.21
158.97
182.29
187.63
173.86
144.28
105.57
65.51
30.75
5.74
-7.17
-7.01
6.07
30.27
61.49
93.43
119.23
134.10
137.35
132.75
126.61
124.54
128.37
135.57
140.72
138.27
125.49
103.05
74.34
43.64
14.13
-13.24
-38.50
-61.31
-80.10
-92.08
-95.15
-89.05
-75.98
-60.14
-46.69
-39.09
-38.43
-44.16
-54.78
-69.50
-87.47
-106.84
-124.76
-138.47
-145.21
-143.14
-131.99
-112.36
-86.39
-56.80
-26.62
6.00
39.26
69.70
94.07
107.02
108.48
97.91
73.35
34.97
-15.26
-72.01
-125.75
-165.87
-185.37
-184.05
-170.00
-155.73
-152.40
-165.17
-191.61
-222.94
-248.54
-260.68
-256.50
-237.97
-208.83
-171.90
-128.54
-79.48
-25.54
31.88
90.84
149.18
204.00
251.55
287.75
308.92
313.47
303.82
286.40
270.01
262.47
268.12
286.87
314.95
345.99
371.97
384.84
377.85
347.67
294.96
224.81
145.49
66.15
-6.09
-68.07
-119.69
-162.07
-195.51
-219.99
-235.43
-243.25
-246.36
-245.91
-243.36
-239.04
-234.50
-225.88
-208.49
-178.73
-138.23
-92.98
-51.05
-19.97
-3.62
-1.46
-9.13
-21.68
-35.08
-46.77
-54.64
-56.18
-48.81
-30.54
-1.37
36.20
76.76
114.06
143.30
163.01
175.00
182.72
189.53
197.14
205.40
212.41
215.83
214.06
207.05
196.30
184.00
172.27
162.10
153.14
143.56
131.21
114.80
94.84
73.49
53.52
36.99
24.23
14.01
4.47
-5.51
-15.43
-23.50
-27.78
-27.43
-22.98
-15.74
-6.75
4.00
17.28
33.71
52.74
72.33
89.44
101.18
105.83
103.25
94.57
81.52
65.75
48.50
30.60
12.52
-5.44
-22.94
-39.31
-53.17
-62.39
-64.40
-56.87
-38.62
-10.47
24.39
60.75
92.36
113.51
120.47
112.28
90.75
59.58
22.94
-15.62
-53.85
-90.83
-126.74
-162.39
-198.57
-235.20
-270.77
-302.38
-326.71
-341.28
-345.55
-340.74
-328.43
-308.87
-280.08
-238.80
-182.70
-112.69
-33.37
48.50
126.78
198.18
262.26
319.73
370.07
410.74
438.36
451.00
449.85
439.17
424.33
409.13
394.38
378.21
358.01
332.39
302.19
269.79
237.68
207.16
177.96
149.06
119.56
89.61
60.43
33.66
10.50
-9.02
-26.35
-44.28
-65.88
-93.26
-126.12
-161.19
-192.67
-214.10
-220.73
-211.63
-190.36
-163.89
-140.04
-124.70
-120.01
-124.41
-134.13
-145.57
-157.16
-170.07
-187.53
-213.59
-251.42
-301.72
-361.56
-424.17
-479.69
-517.19
-527.74
-507.58
-460.37
-397.37
-334.98
-290.14
-274.96
-292.55
-335.91
-390.33
-438.35
-465.45
-463.96
-433.98
-381.45
-314.67
-241.18
-166.31
-93.40
-24.66
38.47
95.90
149.83
204.89
266.73
338.82
419.47
500.68
570.09
615.22
628.46
610.13
568.01
513.88
458.72
409.04
365.94
326.69
287.43
245.39
199.73
151.36
102.46
56.09
15.99
-13.99
-30.87
-33.54
-23.32
-3.75
20.31
43.95
63.14
75.28
79.40
76.00
66.82
54.31
40.98
28.55
17.45
6.75
-5.34
-20.68
-40.51
-65.07
-93.51
-124.09
-154.51
-182.37
-205.71
-223.56
-236.28
-245.52
-253.54
-262.37
-272.76
-283.65
-292.38
-295.72
-291.23
-278.38
-258.63
-234.85
-210.05
-186.45
-165.23
-146.85
-131.76
-120.60
-114.01
-112.05
-113.70
-117.02
-119.80
-120.46
-118.71
-115.44
-112.29
-110.82
-112.06
-116.23
-122.94
-131.37
-140.61
-149.72
-157.76
-163.70
-166.43
-164.83
-157.96
-145.20
-126.39
-101.90
-72.68
-40.22
-6.60
25.69
54.03
76.36
91.82
101.29
107.43
113.84
123.91
139.38
159.74
182.29
203.29
219.35
228.49
230.58
226.85
219.06
208.83
197.38
185.79
175.28
167.23
162.84
162.48
165.32
169.42
172.27
171.61
166.16
155.83
141.49
124.54
106.28
87.64
69.03
50.40
31.51
12.12
-7.77
-27.86
-47.60
-66.32
-83.52
-99.02
-113.13
-126.34
-138.90
-150.38
-159.56
-164.67
-164.15
-157.34
-144.99
-129.23
-112.93
-98.87
-88.97
-84.00
-83.67
-87.13
-93.27
-100.90
-108.56
-114.39
-116.36
-112.75
-102.80
-87.21
-67.99
-47.89
-29.45
-14.28
-2.78
5.55
11.59
16.03
19.15
20.88
21.04
19.59
16.74
12.73
7.81
2.09
-4.37
-11.20
-17.49
-21.73
-22.11
-17.30
-7.05
7.50
24.06
40.15
54.02
65.44
75.72
86.99
101.20
119.18
140.19
162.28
182.96
200.04
212.24
219.15
220.98
218.11
210.96
200.07
186.55
172.23
159.40
150.31
146.45
148.12
154.39
163.39
172.75
179.99
183.00
180.46
172.12
158.96
142.79
125.62
108.96
93.49
79.20
65.79
53.02
40.82
29.22
18.20
7.80
-1.66
-9.72
-16.23
-21.91
-28.46
-37.76
-50.62
-65.69
-79.58
-88.29
-89.38
-83.30
-73.20
-63.09
-55.75
-51.45
-48.46
-44.65
-39.22
-33.26
-28.82
-27.36
-28.57
-30.34
-29.75
-24.51
-13.95
0.83
17.52
33.68
47.47
58.16
66.07
72.16
77.35
81.98
85.56
87.09
85.67
81.07
73.98
65.58
56.82
47.84
37.83
25.55
10.21
-7.78
-26.53
-42.92
-53.56
-55.88
-49.01
-34.27
-14.77
5.52
22.96
35.23
41.68
43.00
40.46
35.14
27.62
18.01
6.33
-7.11
-21.60
-36.14
-49.77
-61.75
-71.68
-79.46
-85.16
-88.92
-90.83
-90.97
-89.48
-86.59
-82.77
-78.67
-75.02
-72.53
-71.66
-72.61
-75.37
-79.87
-86.22
-94.64
-105.35
-118.20
-132.46
-146.69
-158.92
-166.98
-168.74
-162.37
-146.56
-120.84
-86.10
-44.73
-0.67
41.42
77.25
104.03
121.01
129.20
130.50
126.88
119.84
110.55
100.12
89.72
80.36
72.52
65.96
59.93
53.67
46.90
40.05
33.79
28.61
24.42
20.56
16.12
10.54
3.75
-3.76
-11.28
-18.10
-23.78
-28.14
-31.17
-33.04
-34.02
-34.49
-34.83
-35.40
-36.40
-37.84
-39.58
-41.38
-42.99
-44.23
-44.96
-45.12
-44.77
-44.02
-43.05
-42.02
-41.02
-39.96
-38.68
-37.02
-34.95
-32.59
-30.15
-27.81
-25.65
-23.63
-21.67
-19.73
-17.86
-16.21
-14.97
-14.25
-14.04
-14.21
-14.47
-14.52
-14.10
-13.17
-11.83
-10.31
-8.79
-7.33
-5.86
-4.25
-2.43
-0.50
1.37
2.98
4.09
4.48
3.95
2.34
-0.30
-3.62
-6.95
-9.50
-10.66
-10.27
-8.67
-6.53
-4.54
-3.10
-2.30
-2.01
-2.09
-2.46
-3.14
-4.05
-5.01
-5.77
-6.16
-6.28
-6.46
-7.15
-8.65
-11.00
-13.95
-17.08
-20.02
-22.46
-24.13
-24.67
-23.67
-20.83
-16.14
-10.11
-3.66
2.16
6.54
9.20
10.39
10.69
10.67
10.57
10.28
9.42
7.69
5.11
2.08
-0.76
-2.74
-3.47
-2.98
-1.67
-0.14
0.96
1.25
0.53
-1.12
-3.44
-6.14
-8.91
-11.51
-13.84
-15.95
-18.03
-20.34
-23.26
-27.11
-32.02
-37.71
-43.24
-47.09
-47.59
-43.48
-34.57
-21.87
-7.39
6.55
18.14
26.42
31.39
33.57
33.65
32.15
29.48
26.08
22.56
19.59
17.70
17.02
17.21
17.63
17.59
16.69
14.86
12.36
9.50
6.51
3.45
0.31
-2.84
-5.86
-8.50
-10.60
-12.19
-13.50
-14.85
-16.63
-19.14
-22.55
-26.72
-31.07
-34.53
-35.74
-33.48
-27.14
-17.07
-4.53
8.73
20.98
30.98
38.17
42.50
44.27
43.88
41.79
38.56
34.80
31.22
28.50
27.17
27.58
29.82
33.63
38.46
43.53
47.95
50.93
51.91
50.66
47.25
42.07
35.68
28.74
21.89
15.54
9.79
4.42
-1.05
-7.14
-14.13
-21.87
-29.63
-36.22
-40.17
-40.18
-35.53
-26.36
-13.73
0.63
14.78
27.00
36.19
42.01
44.77
45.18
44.07
42.16
39.93
37.66
35.37
33.00
30.45
27.63
24.50
21.09
17.54
14.05
10.86
8.20
6.16
4.77
3.98
3.71
3.86
4.30
4.79
4.92
4.19
2.10
-1.72
-7.45
-15.02
-24.09
-33.92
-43.37
-50.93
-55.05
-54.66
-49.58
-40.72
-29.86
-19.08
-10.13
-3.95
-0.66
0.24
-0.51
-2.23
-4.42
-6.65
-8.50
-9.61
-9.67
-8.61
-6.63
-4.11
-1.53
0.74
2.52
3.87
4.94
5.91
6.78
7.38
7.39
6.57
4.86
2.48
-0.09
-2.40
-4.18
-5.48
-6.68
-8.30
-10.79
-14.33
-18.76
-23.62
-28.16
-31.48
-32.68
-31.01
-26.21
-18.56
-8.92
1.53
11.62
20.37
27.20
31.80
34.09
34.09
32.00
28.25
23.47
18.41
13.66
9.56
6.10
2.99
-0.09
-3.35
-6.70
-9.84
-12.27
-13.59
-13.59
-12.39
-10.42
-8.28
-6.59
-5.81
-6.20
-7.78
-10.39
-13.78
-17.59
-21.54
-25.32
-28.72
-31.61
-34.01
-35.98
-37.61
-38.86
-39.44
-38.85
-36.55
-32.26
-26.10
-18.72
-11.03
-3.89
2.21
7.22
11.31
14.68
17.33
19.12
19.90
19.79
19.15
18.39
17.76
17.20
16.36
14.80
12.12
8.15
2.91
-3.45
-10.68
-18.46
-26.44
-34.22
-41.52
-48.18
-54.32
-60.27
-66.42
-73.18
-80.63
-88.53
-96.36
-103.52
-109.73
-115.26
-120.94
-127.89
-136.92
-147.90
-159.48
-169.36
-174.91
-174.20
-166.67
-153.38
-136.61
-119.15
-103.35
-90.76
-81.84
-76.22
-72.91
-70.71
-68.31
-64.50
-58.28
-48.93
-36.14
-20.12
-1.69
17.71
36.09
51.26
61.39
65.74
65.20
62.18
59.92
61.27
67.49
77.85
89.97
100.94
108.66
112.59
113.82
114.32
116.10
120.39
127.42
136.45
145.95
153.76
157.52
155.31
146.60
132.89
117.65
105.26
99.22
100.44
106.67
113.28
115.35
109.96
97.38
80.70
64.14
50.88
41.81
35.64
30.25
24.35
18.35
14.00
13.13
16.32
22.36
28.82
33.34
34.76
33.41
30.64
27.75
25.21
22.53
18.75
13.25
6.19
-1.48
-8.54
-14.01
-17.64
-19.82
-21.38
-23.22
-26.07
-30.38
-36.32
-43.73
-52.22
-61.18
-69.95
-77.92
-84.58
-89.50
-92.19
-92.11
-88.68
-81.60
-71.10
-58.05
-43.75
-29.61
-16.77
-6.02
2.15
7.35
9.29
7.94
3.82
-1.96
-7.79
-12.00
-13.37
-11.49
-6.73
0.05
8.00
16.64
26.01
36.34
47.76
59.98
72.08
82.81
90.89
95.44
96.22
93.64
88.44
81.43
73.31
64.65
56.03
48.09
41.56
37.13
35.29
36.25
40.05
46.63
55.85
67.47
80.89
95.18
109.04
121.12
130.38
136.22
138.60
137.76
133.99
127.54
118.55
107.31
94.32
80.28
65.79
51.15
36.15
20.25
2.84
-16.33
-36.86
-57.77
-77.83
-95.96
-111.43
-123.90
-133.21
-139.17
-141.50
-139.89
-134.22
-124.71
-111.96
-96.93
-80.77
-64.64
-49.46
-35.71
-23.28
-11.47
0.85
14.93
31.78
51.80
74.62
99.14
123.72
146.57
166.03
180.89
190.55
194.99
194.66
190.32
182.85
173.08
161.81
149.64
136.88
123.49
108.92
92.24
72.38
48.40
19.96
-12.42
-47.35
-82.72
-116.18
-145.63
-169.62
-187.42
-198.97
-204.62
-204.91
-200.47
-192.04
-180.39
-166.40
-150.92
-134.65
-118.10
-101.62
-85.40
-69.49
-53.79
-38.10
-22.26
-6.31
9.38
24.14
37.12
47.62
55.31
60.40
63.74
66.65
70.43
75.76
82.01
87.21
88.55
83.59
71.58
54.11
34.82
18.01
7.06
3.15
5.18
10.64
16.91
22.38
26.77
30.64
34.62
38.85
42.87
45.97
47.67
47.89
46.73
43.98
38.82
29.89
16.04
-2.87
-25.52
-49.31
-71.31
-89.26
-102.35
-111.15
-116.98
-121.07
-124.09
-126.11
-126.98
-126.86
-126.39
-126.44
-127.55
-129.30
-130.28
-128.39
-121.52
-108.33
-88.65
-63.45
-34.53
-3.89
26.64
55.60
81.87
104.61
123.09
136.78
145.38
148.96
147.96
143.11
135.26
125.09
112.89
98.51
81.50
61.40
37.99
11.62
-16.71
-45.39
-72.41
-95.71
-113.67
-125.43
-131.15
-131.86
-128.98
-123.81
-117.08
-108.87
-98.85
-86.69
-72.34
-56.16
-38.80
-20.94
-3.27
13.57
28.83
41.64
51.12
56.74
58.61
57.64
55.30
53.11
52.17
52.80
54.59
56.75
58.54
59.55
59.78
59.50
59.03
58.56
58.05
57.14
55.28
51.76
45.93
37.38
25.99
12.03
-3.87
-20.75
-37.42
-52.49
-64.62
-72.75
-76.41
-75.95
-72.45
-67.38
-62.12
-57.39
-53.02
-48.16
-41.64
-32.55
-20.64
-6.46
8.86
24.01
37.86
49.63
59.00
65.98
70.73
73.46
74.32
73.23
69.84
63.45
53.12
37.94
17.60
-7.23
-34.61
-61.73
-85.59
-103.93
-115.67
-120.96
-120.74
-116.12
-108.08
-97.49
-85.29
-72.71
-61.00
-51.25
-44.05
-39.52
-37.34
-37.13
-38.38
-40.62
-43.42
-46.38
-49.26
-51.94
-54.17
-55.52
-55.31
-52.82
-47.63
-39.97
-30.70
-21.17
-12.74
-6.49
-2.93
-1.94
-2.78
-4.34
-5.36
-4.90
-2.63
1.08
5.38
9.52
13.31
17.42
23.16
31.86
44.21
59.89
77.55
95.33
111.45
124.70
134.62
141.31
144.99
145.61
142.67
135.37
123.13
106.08
85.32
62.77
40.63
20.68
3.94
-9.51
-20.20
-28.96
-36.47
-43.07
-48.74
-53.10
-55.56
-55.46
-52.21
-45.48
-35.40
-22.64
-8.44
5.55
17.60
26.37
31.26
32.53
31.18
28.48
25.56
23.09
21.27
19.97
18.88
17.43
14.92
10.57
3.90
-4.95
-15.15
-25.43
-34.66
-42.33
-48.76
-54.73
-60.97
-67.63
-74.17
-79.61
-82.89
-83.15
-79.74
-71.97
-59.13
-40.72
-17.18
9.51
35.64
56.60
68.46
69.95
63.46
54.39
48.74
50.17
58.30
69.31
78.69
84.26
87.59
92.71
103.22
119.74
139.42
157.68
170.64
176.71
176.24
169.99
157.99
139.70
115.40
87.43
60.13
38.16
24.45
18.84
18.31
18.52
15.70
7.79
-5.39
-22.68
-42.33
-62.45
-81.20
-96.76
-107.45
-112.04
-110.15
-102.38
-90.24
-75.75
-60.84
-47.02
-35.17
-25.69
-18.68
-14.17
-11.98
-11.75
-12.84
-14.52
-16.13
-17.28
-17.92
-18.22
-18.31
-18.25
-17.93
-17.30
-16.47
-15.73
-15.49
-16.08
-17.48
-19.45
-21.52
-23.34
-24.78
-25.97
-27.25
-28.94
-31.31
-34.46
-38.27
-42.32
-45.90
-48.15
-48.31
-46.05
-41.60
-35.79
-29.72
-24.35
-20.28
-17.65
-16.40
-16.50
-18.15
-21.71
-27.48
-35.34
-44.65
-54.36
-63.34
-70.80
-76.53
-80.96
-84.95
-89.41
-94.96
-101.77
-109.62
-117.91
-125.84
-132.43
-136.76
-138.38
-137.86
-136.97
-138.31
-144.22
-155.31
-169.57
-182.46
-188.28
-182.12
-161.70
-128.02
-84.73
-36.95
10.70
54.98
94.45
129.43
160.96
190.22
217.99
244.51
269.42
291.50
308.48
317.38
315.53
302.00
278.58
249.59
220.21
194.27
172.70
153.42
133.03
109.04
81.27
51.83
23.64
-1.10
-21.72
-38.75
-53.03
-65.09
-74.90
-82.61
-88.43
-92.74
-95.91
-97.84
-97.94
-95.36
-89.36
-79.74
-67.04
-52.38
-37.28
-23.27
-11.58
-2.93
2.55
5.23
5.88
5.41
4.69
4.29
4.47
5.13
6.00
6.84
7.49
7.98
8.39
8.76
9.05
9.11
8.78
7.96
6.63
4.83
2.62
0.03
-2.92
-6.30
-10.24
-14.84
-20.01
-25.36
-30.12
-33.26
-33.81
-31.18
-25.47
-17.33
-7.82
1.89
10.78
18.14
23.63
27.06
28.43
27.92
25.95
23.10
19.96
17.06
14.73
13.08
12.02
11.26
10.52
9.71
8.76
7.58
6.00
3.81
0.82
-3.02
-7.76
-13.16
-18.32
-22.45
-25.18
-26.77
-28.14
-30.40
-34.47
-40.90
-49.10
-56.38
-59.88
-57.40
-48.36
-33.90
-16.30
1.98
18.37
32.13
45.48
60.85
79.80
102.24
126.58
150.89
173.91
194.44
213.58
235.56
264.03
300.89
345.57
395.34
446.68
496.49
541.43
563.19
548.21
489.93
393.42
273.79
148.92
32.87
-58.42
-127.77
-179.74
-215.48
-235.63
-241.41
-235.26
-221.00
-201.41
-178.21
-153.87
-129.22
-103.77
-78.20
-54.25
-34.31
-20.71
-14.49
-15.00
-20.88
-28.24
-31.54
-26.38
-10.84
13.49
41.66
66.80
81.99
81.56
64.06
32.45
-7.42
-48.54
-84.81
-112.68
-131.56
-143.38
-151.53
-158.64
-165.98
-173.85
-182.43
-192.70
-206.58
-225.90
-250.98
-279.53
-306.43
-325.35
-330.94
-320.79
-296.21
-261.57
-222.64
-184.70
-151.31
-123.87
-102.26
-85.60
-72.94
-63.61
-57.03
-52.51
-49.05
-45.41
-40.41
-33.40
-24.43
-14.38
-4.62
3.37
8.32
9.30
5.72
-2.61
-15.63
-32.76
-52.72
-73.28
-91.27
-102.85
-104.10
-91.91
-65.09
-25.12
23.70
74.89
121.38
157.32
179.42
187.41
183.24
169.99
150.98
129.50
109.12
93.53
85.93
87.70
97.49
111.32
123.98
131.24
131.39
125.51
116.33
106.44
97.03
87.71
77.38
65.34
51.94
38.42
26.22
16.29
8.73
2.90
-2.05
-6.78
-11.56
-16.28
-20.72
-24.72
-28.19
-31.03
-32.97
-33.56
-32.30
-28.91
-23.53
-16.72
-9.35
-2.41
3.32
7.30
9.35
9.57
8.27
5.90
2.97
0.01
-2.56
-4.44
-5.51
-5.79
-5.42
-4.59
-3.54
-2.53
-1.76
-1.40
-1.46
-1.90
-2.55
-3.27
-3.95
-4.58
-5.28
-6.20
-7.59
-9.65
-12.52
-16.14
-20.18
-23.94
-26.53
-27.05
-24.94
-20.24
-13.59
-6.05
1.22
7.34
11.81
14.50
15.43
14.72
12.45
8.87
4.42
-0.25
-4.42
-7.55
-9.37
-9.96
-9.69
-9.05
-8.51
-8.42
-8.99
-10.21
-12.01
-14.17
-16.48
-18.77
-20.93
-22.94
-24.88
-26.86
-29.07
-31.70
-34.85
-38.37
-41.77
-44.28
-44.97
-43.16
-38.64
-31.85
-23.71
-15.33
-7.68
-1.37
3.32
6.39
7.83
7.71
6.12
3.36
-0.07
-3.47
-6.18
-7.74
-8.05
-7.35
-6.10
-4.80
-3.86
-3.48
-3.74
-4.63
-6.09
-8.03
-10.28
-12.67
-15.01
-17.20
-19.32
-21.55
-24.15
-27.28
-30.79
-34.20
-36.70
-37.38
-35.55
-30.97
-24.02
-15.54
-6.66
1.61
8.53
13.73
17.16
18.89
19.05
17.86
15.61
12.78
9.90
7.48
5.88
5.21
5.30
5.88
6.59
7.15
7.36
7.12
6.38
5.20
3.69
1.99
0.25
-1.42
-3.03
-4.65
-6.44
-8.66
-11.52
-15.12
-19.29
-23.44
-26.65
-27.86
-26.25
-21.56
-14.27
-5.42
3.68
11.93
18.61
23.45
26.45
27.70
27.29
25.31
22.02
17.93
13.68
9.96
7.28
5.80
5.37
5.59
6.01
6.29
6.24
5.82
5.07
4.02
2.69
1.02
-1.11
-3.84
-7.26
-11.37
-16.02
-21.00
-26.11
-31.27
-36.49
-41.75
-46.80
-51.07
-53.82
-54.40
-52.65
-49.03
-44.53
-40.37
-37.55
-36.65
-37.75
-40.60
-44.86
-50.21
-56.30
-62.78
-69.25
-75.34
-80.87
-85.90
-90.64
-95.23
-99.50
-102.86
-104.44
-103.43
-99.33
-92.10
-82.03
-69.56
-55.18
-39.49
-23.25
-7.50
6.78
18.98
29.01
37.30
44.37
50.46
55.49
59.24
61.73
63.36
64.71
66.08
67.19
67.26
65.48
61.55
55.95
49.59
43.30
37.12
30.19
21.03
8.33
-8.38
-28.39
-49.88
-70.45
-87.76
-100.13
-106.96
-108.86
-107.48
-105.01
-103.46
-104.21
-107.57
-112.90
-118.85
-123.84
-126.41
-125.36
-119.81
-109.13
-93.04
-71.80
-46.26
-17.87
11.75
41.21
69.80
97.62
125.25
153.23
181.52
209.20
234.72
256.41
273.11
284.50
291.06
293.53
292.58
288.60
281.80
272.37
260.46
246.05
228.69
207.60
182.11
152.20
118.91
84.32
50.96
21.25
-3.04
-20.85
-31.74
-35.86
-34.03
-28.01
-20.38
-14.01
-11.06
-12.27
-16.71
-22.32
-26.92
-29.25
-29.20
-27.52
-25.09
-22.32
-19.04
-14.90
-9.72
-3.74
2.52
8.55
13.94
18.27
20.95
21.32
18.90
13.81
6.87
-0.61
-7.31
-12.31
-15.11
-15.52
-13.37
-8.50
-1.06
8.20
17.78
25.63
29.63
28.20
20.73
8.00
-7.68
-22.59
-32.45
-33.88
-25.91
-10.83
6.31
19.52
24.22
18.86
5.10
-13.40
-32.66
-49.72
-62.90
-71.57
-75.91
-77.02
-76.95
-78.48
-84.21
-95.38
-111.24
-129.44
-146.95
-161.29
-170.87
-174.87
-172.66
-163.71
-147.91
-126.00
-99.51
-70.07
-38.39
-3.86
34.66
77.46
122.46
164.99
199.12
219.71
224.43
214.28
192.87
164.72
133.83
103.16
74.90
51.02
33.33
22.97
19.73
21.77
26.19
30.04
31.53
30.39
27.57
24.51
22.38
21.83
22.92
25.26
28.23
30.99
32.65
32.54
30.46
26.95
23.11
20.31
19.57
21.03
23.81
26.15
26.06
21.98
13.24
0.27
-15.62
-32.70
-49.16
-63.49
-74.52
-81.62
-84.64
-84.08
-80.91
-76.28
-71.16
-65.98
-60.58
-54.45
-47.12
-38.49
-28.96
-19.43
-11.05
-5.02
-2.37
-3.77
-9.31
-18.42
-29.91
-42.17
-53.55
-62.70
-68.89
-72.03
-72.58
-71.26
-68.80
-65.73
-62.30
-58.58
-54.58
-50.32
-45.87
-41.27
-36.49
-31.39
-25.84
-19.73
-13.13
-6.23
0.58
6.89
12.20
16.18
18.69
19.97
20.70
21.82
24.35
29.04
36.13
45.26
55.60
66.13
75.89
84.09
90.16
93.72
94.62
92.97
89.24
84.22
78.91
74.15
70.45
67.79
65.74
63.66
60.93
57.17
52.32
46.54
40.12
33.43
26.77
20.42
14.60
9.45
4.96
0.91
-3.10
-7.54
-12.85
-19.19
-26.55
-34.70
-43.32
-51.97
-60.02
-66.56
-70.49
-70.74
-66.79
-58.85
-48.03
-36.03
-24.67
-15.39
-8.99
-5.66
-5.14
-7.00
-10.72
-15.70
-21.21
-26.47
-30.74
-33.52
-34.69
-34.50
-33.44
-32.02
-30.61
-29.38
-28.39
-27.65
-27.24
-27.29
-27.98
-29.37
-31.43
-33.98
-36.69
-39.14
-40.92
-41.70
-41.39
-40.19
-38.57
-37.13
-36.22
-35.70
-34.86
-32.62
-27.99
-20.58
-10.81
0.15
10.87
20.12
27.23
32.11
34.96
36.01
35.30
32.71
28.21
21.97
14.53
6.63
-0.88
-7.22
-11.79
-14.26
-14.47
-12.55
-8.83
-3.90
1.59
7.04
12.28
17.70
24.29
33.16
44.98
59.49
75.24
90.04
101.57
107.90
107.80
100.64
86.36
65.62
40.16
12.89
-12.58
-32.83
-45.90
-51.85
-52.55
-50.68
-48.55
-47.40
-47.40
-48.21
-49.56
-51.42
-53.84
-56.76
-59.82
-62.53
-64.36
-64.88
-63.68
-60.39
-54.80
-46.96
-37.35
-26.77
-16.05
-5.83
3.59
12.07
19.41
25.21
29.02
30.57
30.13
28.50
26.82
26.09
26.76
28.51
30.47
31.65
31.47
30.16
28.74
28.69
31.30
37.05
45.36
54.74
63.47
70.13
74.06
75.27
74.13
70.90
65.71
58.69
50.30
41.53
33.72
28.17
25.76
26.61
30.18
35.49
41.44
47.08
51.72
54.96
56.57
56.41
54.31
50.05
43.40
34.32
23.14
10.63
-2.20
-14.38
-25.36
-35.17
-44.27
-53.34
-62.88
-72.96
-83.23
-92.92
-101.07
-106.65
-108.79
-107.00
-101.41
-92.78
-82.47
-72.09
-63.12
-56.53
-52.71
-51.51
-52.42
-54.84
-58.14
-61.69
-64.79
-66.68
-66.64
-64.17
-59.22
-52.32
-44.50
-36.74
-29.55
-22.54
-14.54
-4.25
8.98
24.54
40.66
55.01
65.70
71.89
73.95
73.06
70.48
67.09
63.20
58.78
53.63
47.58
40.51
32.35
23.29
13.96
5.49
-0.71
-3.45
-2.27
2.23
8.62
15.18
20.51
23.92
25.51
25.77
25.14
23.79
21.59
18.34
14.06
9.08
3.92
-0.92
-5.18
-8.92
-12.40
-15.88
-19.37
-22.59
-25.05
-26.34
-26.39
-25.55
-24.46
-23.82
-24.10
-25.38
-27.40
-29.70
-31.78
-33.33
-34.26
-34.69
-34.84
-34.92
-35.08
-35.27
-35.36
-35.03
-33.83
-31.19
-26.59
-19.75
-10.80
-0.37
10.54
20.77
29.33
35.57
39.28
40.50
39.50
36.59
32.16
26.73
20.91
15.36
10.62
6.99
4.44
2.72
1.48
0.44
-0.53
-1.50
-2.53
-3.76
-5.35
-7.36
-9.65
-11.87
-13.54
-14.24
-13.78
-12.28
-10.12
-7.85
-6.10
-5.42
-6.26
-8.72
-12.49
-16.77
-20.38
-21.99
-20.47
-15.09
-5.58
7.96
25.23
45.84
69.10
93.74
117.64
137.85
151.05
154.41
146.65
128.58
103.07
74.18
46.01
21.55
2.21
-12.02
-22.02
-29.00
-34.15
-38.69
-43.82
-50.60
-59.50
-69.95
-80.19
-87.64
-89.75
-84.95
-73.34
-56.76
-38.24
-21.09
-7.97
-0.40
1.47
-1.45
-7.49
-14.70
-21.13
-25.23
-25.98
-23.22
-17.48
-9.89
-1.79
5.54
11.14
14.40
15.09
13.31
9.51
4.40
-1.15
-6.31
-10.49
-13.50
-15.46
-16.68
-17.46
-17.96
-18.18
-17.96
-17.17
-15.78
-13.95
-12.03
-10.45
-9.50
-9.27
-9.60
-10.14
-10.56
-10.67
-10.48
-10.18
-10.07
-10.47
-11.63
-13.65
-16.31
-19.11
-21.19
-21.65
-19.74
-15.24
-8.45
-0.20
8.51
16.74
23.79
29.26
32.98
34.91
35.09
33.74
31.20
27.98
24.67
21.80
19.73
18.54
18.10
18.07
18.10
17.93
17.39
16.45
15.13
13.40
11.21
8.49
5.22
1.46
-2.66
-6.92
-11.13
-15.13
-18.85
-22.30
-25.67
-29.19
-33.11
-37.48
-41.99
-46.03
-48.77
-49.46
-47.68
-43.53
-37.53
-30.41
-22.78
-15.01
-7.18
0.73
8.69
16.57
24.07
30.95
37.06
42.41
47.15
51.41
55.24
58.54
61.06
62.50
62.60
61.25
58.44
54.31
49.08
43.04
36.53
29.95
23.68
18.01
13.06
8.64
4.41
-0.13
-5.32
-11.26
-17.61
-23.66
-28.42
-30.95
-30.67
-27.61
-22.52
-16.55
-10.91
-6.41
-3.27
-1.14
0.50
2.15
4.04
6.29
8.99
12.32
16.48
21.49
27.23
33.52
40.15
46.84
52.96
57.39
58.57
55.12
46.48
33.46
18.06
2.80
-10.15
-19.53
-25.00
-26.86
-25.68
-22.21
-17.48
-12.85
-9.75
-9.21
-11.46
-15.77
-20.79
-25.02
-27.30
-27.05
-24.26
-19.35
-12.94
-5.76
1.46
8.06
13.50
17.44
19.73
20.52
20.20
19.36
18.61
18.39
18.68
19.05
18.77
17.15
13.79
8.76
2.50
-4.38
-11.35
-18.10
-24.55
-30.79
-36.97
-43.23
-49.77
-56.77
-64.26
-72.03
-79.50
-85.78
-89.90
-91.14
-89.28
-84.72
-78.23
-70.72
-62.94
-55.36
-48.22
-41.63
-35.68
-30.41
-25.74
-21.43
-17.11
-12.30
-6.64
0.10
7.95
16.69
25.95
35.17
43.77
51.22
57.15
61.46
64.30
65.87
66.42
66.06
64.82
62.69
59.71
55.98
51.69
46.97
41.95
36.78
31.77
27.39
24.20
22.65
22.91
24.71
27.43
30.29
32.59
33.86
33.87
32.63
30.20
26.72
22.41
17.58
12.69
8.23
4.65
2.21
1.00
0.88
1.60
2.88
4.45
6.09
7.69
9.17
10.51
11.76
13.04
14.56
16.58
19.35
23.06
27.68
32.96
38.35
43.15
46.70
48.62
49.10
48.82
48.79
49.93
52.73
57.04
62.23
67.46
72.07
75.73
78.46
80.42
81.73
82.24
81.57
79.18
74.55
67.44
58.01
46.83
34.76
22.72
11.40
1.10
-8.16
-16.55
-24.19
-30.98
-36.62
-40.68
-42.79
-42.82
-40.99
-37.92
-34.44
-31.32
-29.02
-27.36
-25.54
-22.24
-15.90
-5.15
10.83
31.91
56.80
83.21
108.36
129.72
145.75
156.26
162.10
164.50
164.36
161.87
156.74
148.66
137.86
125.01
110.84
95.48
78.00
56.41
28.34
-8.20
-53.93
-107.63
-165.95
-223.64
-274.43
-312.42
-333.57
-336.78
-324.08
-299.60
-267.90
-232.24
-193.77
-151.90
-105.74
-55.56
-3.58
46.45
90.42
125.18
149.35
163.19
167.94
165.05
155.81
141.20
122.07
99.31
73.96
47.24
20.71
-3.79
-24.16
-38.55
-45.97
-46.86
-43.13
-37.62
-33.24
-32.12
-35.28
-42.91
-54.86
-71.07
-91.40
-115.25
-141.23
-167.32
-191.54
-212.66
-230.39
-244.93
-255.99
-262.18
-261.00
-249.81
-227.24
-194.15
-153.82
-111.19
-71.40
-38.51
-14.75
-0.30
6.19
6.96
4.59
1.43
-0.62
-0.28
3.01
9.14
17.31
26.25
34.54
40.95
44.81
46.05
45.18
42.96
40.20
37.47
35.13
33.35
32.19
31.71
31.94
32.80
34.08
35.38
36.21
36.16
34.93
32.48
28.91
24.48
19.47
14.21
8.96
3.95
-0.72
-5.03
-9.08
-13.07
-17.18
-21.59
-26.33
-31.20
-35.79
-39.47
-41.58
-41.58
-39.31
-34.93
-28.97
-22.09
-14.96
-8.14
-2.05
2.98
6.74
9.11
10.12
9.98
9.06
7.77
6.53
5.65
5.28
5.45
6.04
6.94
8.07
9.35
10.70
11.94
12.77
12.82
11.83
9.74
6.79
3.40
0.07
-2.86
-5.25
-7.15
-8.75
-10.33
-12.14
-14.35
-16.88
-19.32
-20.95
-20.96
-18.69
-13.99
-7.29
0.48
8.24
15.11
20.57
24.52
27.07
28.29
28.24
26.97
24.72
21.99
19.44
17.65
16.90
17.08
17.75
18.40
18.70
18.58
18.18
17.69
17.13
16.31
14.98
12.92
10.15
6.89
3.53
0.39
-2.30
-4.56
-6.57
-8.62
-10.96
-13.76
-17.01
-20.48
-23.67
-25.98
-26.73
-25.38
-21.76
-16.08
-8.98
-1.31
6.06
12.46
17.50
20.98
22.92
23.35
22.41
20.37
17.66
14.83
12.45
10.92
10.37
10.62
11.29
11.96
12.34
12.42
12.29
12.17
12.13
12.08
11.76
10.90
9.38
7.25
4.76
2.19
-0.23
-2.47
-4.61
-6.82
-9.30
-12.19
-15.53
-19.12
-22.54
-25.09
-25.96
-24.43
-20.13
-13.22
-4.44
5.12
14.29
22.12
28.04
31.87
33.69
33.73
32.28
29.69
26.41
23.00
19.96
17.70
16.37
15.86
15.86
16.07
16.25
16.32
16.30
16.19
15.97
15.52
14.69
13.33
11.42
9.02
6.33
3.60
1.07
-1.09
-2.92
-4.60
-6.44
-8.73
-11.54
-14.61
-17.36
-19.01
-18.82
-16.38
-11.75
-5.42
1.83
9.13
15.76
21.24
25.30
27.79
28.66
27.95
25.88
22.89
19.59
16.61
14.44
13.25
12.89
12.97
13.08
13.00
12.74
12.50
12.49
12.77
13.11
13.17
12.57
11.16
9.04
6.55
4.09
1.95
0.22
-1.20
-2.51
-3.98
-5.83
-8.20
-11.02
-14.00
-16.57
-18.00
-17.62
-15.10
-10.60
-4.73
1.61
7.53
12.33
15.64
17.31
17.33
15.76
12.65
8.19
2.76
-3.08
-8.65
-13.32
-16.69
-18.68
-19.52
-19.55
-19.12
-18.42
-17.57
-16.65
-15.85
-15.51
-15.96
-17.47
-20.01
-23.26
-26.69
-29.71
-31.92
-33.19
-33.72
-33.91
-34.23
-34.96
-36.12
-37.35
-38.02
-37.29
-34.34
-28.44
-19.20
-6.69
8.42
24.75
40.44
53.43
62.12
65.75
64.71
60.32
54.31
48.14
42.68
38.16
34.50
31.70
29.96
29.51
30.34
32.12
34.31
36.55
38.83
41.53
45.01
49.19
53.39
56.63
58.08
57.55
55.58
53.07
50.78
48.94
47.16
44.75
41.19
36.43
31.07
26.16
22.85
22.05
24.16
28.92
35.45
42.52
48.87
53.59
56.34
57.37
57.28
56.72
55.99
55.00
53.40
50.75
46.87
41.99
36.60
31.29
26.40
21.96
17.67
13.21
8.47
3.75
-0.45
-3.77
-6.38
-9.02
-12.73
-18.24
-25.60
-34.11
-42.70
-50.49
-57.15
-62.84
-67.80
-72.00
-75.00
-76.14
-74.90
-71.13
-65.05
-57.16
-48.02
-38.19
-28.30
-19.06
-11.18
-5.37
-2.13
-1.76
-4.26
-9.25
-15.92
-23.09
-29.45
-33.89
-35.83
-35.37
-33.11
-29.92
-26.58
-23.64
-21.30
-19.47
-17.71
-15.46
-12.35
-8.48
-4.57
-1.70
-0.64
-1.33
-2.60
-2.64
0.09
5.89
13.49
20.49
24.40
23.75
18.65
10.58
1.75
-5.71
-10.28
-11.27
-8.84
-3.85
2.33
8.10
12.08
13.40
11.94
8.31
3.60
-0.93
-4.11
-5.00
-2.89
2.66
11.73
23.82
37.87
52.20
64.95
74.44
79.74
80.87
78.81
74.95
70.32
64.99
57.97
47.77
33.38
15.13
-5.13
-24.65
-40.87
-52.32
-58.93
-61.60
-61.47
-59.30
-55.32
-49.58
-42.43
-34.70
-27.51
-21.91
-18.44
-17.02
-17.13
-18.06
-19.13
-19.83
-19.75
-18.51
-15.71
-11.02
-4.32
3.98
12.82
20.66
25.90
27.50
25.40
20.64
15.05
10.50
8.30
8.84
11.55
15.29
18.82
21.07
21.35
19.24
14.63
7.69
-1.10
-10.84
-20.40
-28.52
-34.18
-36.87
-36.71
-34.48
-31.30
-28.32
-26.32
-25.64
-26.09
-27.22
-28.63
-30.08
-31.54
-33.10
-34.81
-36.56
-38.09
-39.12
-39.47
-39.13
-38.23
-37.01
-35.68
-34.44
-33.45
-32.83
-32.55
-32.50
-32.49
-32.30
-31.81
-31.03
-30.13
-29.36
-28.99
-29.26
-30.36
-32.27
-34.82
-37.55
-39.83
-40.92
-40.19
-37.36
-32.51
-26.15
-19.01
-11.87
-5.41
-0.05
3.99
6.67
7.99
8.05
7.06
5.38
3.57
2.22
1.79
2.48
4.18
6.47
8.86
10.86
12.14
12.57
12.15
10.98
9.22
7.03
4.54
1.91
-0.77
-3.39
-5.92
-8.39
-10.96
-13.83
-17.09
-20.56
-23.73
-25.84
-26.15
-24.25
-20.24
-14.76
-8.70
-2.97
1.78
5.26
7.45
8.52
8.69
8.23
7.39
6.45
5.68
5.26
5.30
5.78
6.64
7.80
9.12
10.46
11.62
12.40
12.58
12.01
10.66
8.64
6.18
3.55
1.02
-1.25
-3.25
-5.11
-7.02
-9.15
-11.54
-13.98
-16.11
-17.40
-17.38
-15.75
-12.46
-7.74
-2.03
4.06
9.92
15.02
18.98
21.61
22.87
22.86
21.75
19.73
17.14
14.36
11.82
9.88
8.69
8.22
8.23
8.44
8.64
8.73
8.65
8.37
7.76
6.70
5.11
3.07
0.79
-1.41
-3.30
-4.76
-5.89
-6.95
-8.27
-10.11
-12.58
-15.58
-18.78
-21.62
-23.49
-23.82
-22.21
-18.61
-13.35
-7.05
-0.52
5.44
10.23
13.53
15.32
15.81
15.26
13.99
12.27
10.42
8.75
7.58
7.14
7.48
8.40
9.56
10.59
11.22
11.42
11.30
11.07
10.86
10.71
10.51
10.08
9.29
8.10
6.60
4.98
3.46
2.17
1.17
0.37
-0.37
-1.21
-2.27
-3.65
-5.42
-7.61
-10.13
-12.64
-14.57
-15.23
-14.03
-10.74
-5.64
0.55
6.89
12.52
16.89
19.75
21.10
21.02
19.66
17.22
14.11
10.86
8.15
6.47
6.04
6.67
7.86
9.04
9.80
10.11
10.22
10.53
11.27
12.31
13.22
13.48
12.78
11.25
9.42
8.01
7.58
8.24
9.68
11.32
12.64
13.44
13.92
14.66
16.55
20.79
28.85
42.11
61.22
85.41
112.11
137.33
156.85
167.67
169.05
162.60
151.28
137.97
124.23
109.87
93.37
72.89
47.19
16.04
-19.71
-58.31
-97.22
-133.14
-162.26
-180.73
-185.48
-175.18
-150.96
-116.60
-77.90
-41.46
-13.10
3.55
7.76
1.48
-11.57
-27.31
-42.43
-55.13
-65.01
-72.52
-78.23
-82.33
-84.60
-84.76
-82.85
-79.40
-75.28
-71.34
-68.12
-65.65
-63.72
-62.11
-60.72
-59.40
-57.59
-54.20
-47.90
-37.77
-24.05
-8.32
6.98
19.46
27.81
32.10
33.56
33.70
33.69
33.98
34.49
35.04
35.67
36.75
38.75
41.97
46.38
51.61
57.00
61.72
64.94
65.96
64.36
60.07
53.43
44.96
35.33
25.17
15.09
5.66
-2.47
-8.75
-12.87
-14.93
-15.51
-15.44
-15.60
-16.56
-18.47
-21.14
-24.25
-27.53
-30.76
-33.75
-36.16
-37.52
-37.30
-35.13
-30.98
-25.22
-18.58
-11.91
-5.94
-1.14
2.32
4.48
5.50
5.55
4.83
3.59
2.18
1.00
0.41
0.59
1.47
2.75
4.09
5.20
5.98
6.49
6.83
7.04
7.00
6.49
5.28
3.27
0.55
-2.64
-5.95
-9.13
-12.03
-14.60
-16.88
-18.98
-21.10
-23.51
-26.49
-30.13
-34.14
-37.74
-39.80
-39.27
-35.60
-29.05
-20.59
-11.58
-3.22
3.80
9.32
13.54
16.71
18.95
20.32
20.91
20.98
20.88
20.94
21.27
21.73
22.02
21.84
21.05
19.72
18.05
16.25
14.48
12.77
11.08
9.31
7.40
5.33
3.16
1.00
-0.98
-2.66
-3.96
-4.87
-5.56
-6.36
-7.73
-10.10
-13.59
-17.83
-22.00
-25.01
-25.89
-24.19
-20.09
-14.27
-7.66
-1.08
4.91
9.99
14.02
16.88
18.45
18.76
18.02
16.57
14.84
13.22
11.91
10.94
10.23
9.65
9.15
8.79
8.69
8.93
9.45
10.02
10.30
9.94
8.72
6.69
4.10
1.30
-1.36
-3.74
-5.88
-7.99
-10.37
-13.26
-16.74
-20.70
-24.71
-28.08
-29.95
-29.57
-26.55
-21.01
-13.66
-5.47
2.55
9.68
15.56
20.08
23.28
25.16
25.72
24.99
23.22
20.78
18.12
15.61
13.47
11.74
10.36
9.26
8.39
7.71
7.22
6.87
6.59
6.30
5.86
5.19
4.22
2.89
1.21
-0.76
-2.90
-5.06
-7.15
-9.18
-11.30
-13.76
-16.77
-20.27
-23.82
-26.63
-27.78
-26.54
-22.68
-16.58
-9.06
-1.10
6.42
12.91
18.09
21.83
24.13
25.04
24.67
23.23
21.04
18.46
15.84
13.47
11.52
10.06
9.06
8.45
8.13
7.99
7.94
7.81
7.43
6.54
4.98
2.69
-0.13
-3.09
-5.67
-7.43
-8.12
-7.87
-7.15
-6.60
-6.92
-8.53
-11.44
-15.18
-18.92
-21.69
-22.63
-21.30
-17.71
-12.34
-5.94
0.71
6.93
12.29
16.54
19.60
21.47
22.18
21.86
20.70
18.93
16.83
14.69
12.70
11.04
9.75
8.78
8.09
7.66
7.55
7.83
8.49
9.35
10.05
10.19
9.52
8.03
6.00
3.81
1.75
-0.06
-1.80
-3.71
-6.06
-8.94
-12.27
-15.72
-18.82
-20.98
-21.58
-20.21
-16.75
-11.50
-5.07
1.77
8.30
14.05
18.72
22.17
24.32
25.09
24.53
22.85
20.41
17.69
15.08
12.84
11.04
9.62
8.51
7.67
7.12
6.91
7.02
7.34
7.70
7.85
7.56
6.67
5.10
2.95
0.40
-2.23
-4.64
-6.63
-8.15
-9.36
-10.58
-12.14
-14.21
-16.61
-18.81
-20.10
-19.79
-17.49
-13.29
-7.67
-1.35
4.96
10.75
15.70
19.61
22.32
23.64
23.43
21.71
18.71
14.89
10.82
7.00
3.83
1.48
-0.08
-1.01
-1.52
-1.84
-2.18
-2.67
-3.34
-4.04
-4.52
-4.49
-3.87
-2.91
-2.17
-2.41
-4.19
-7.54
-11.82
-15.88
-18.53
-19.09
-17.80
-15.80
-14.65
-15.57
-18.75
-23.04
-26.26
-25.98
-20.33
-8.61
8.42
28.71
49.18
66.26
76.85
79.42
75.04
67.50
62.24
64.14
75.29
93.70
113.85
128.85
133.19
124.90
106.11
82.12
59.31
42.97
35.74
37.16
44.22
52.78
59.06
60.82
57.63
50.29
39.90
27.06
11.91
-5.24
-23.26
-40.04
-53.17
-60.94
-63.23
-61.48
-58.04
-54.96
-53.07
-51.90
-50.14
-46.66
-41.24
-34.78
-28.84
-24.90
-23.75
-25.19
-28.27
-31.78
-34.74
-36.70
-37.78
-38.48
-39.38
-40.91
-43.21
-46.05
-48.98
-51.48
-53.14
-53.80
-53.61
-52.95
-52.25
-51.84
-51.86
-52.22
-52.68
-52.92
-52.60
-51.46
-49.28
-45.94
-41.45
-36.00
-29.90
-23.64
-17.72
-12.59
-8.50
-5.46
-3.30
-1.80
-0.83
-0.36
-0.48
-1.23
-2.47
-3.92
-5.18
-5.87
-5.74
-4.66
-2.61
0.34
4.04
8.21
12.48
16.35
19.36
21.17
21.60
20.75
18.84
16.18
13.07
9.72
6.26
2.81
-0.44
-3.21
-5.18
-6.01
-5.55
-3.84
-1.16
2.03
5.22
7.97
9.94
10.99
11.13
10.52
9.36
7.90
6.35
4.88
3.62
2.64
1.96
1.54
1.33
1.24
1.22
1.22
1.22
1.17
1.02
0.70
0.14
-0.72
-1.95
-3.60
-5.69
-8.25
-11.23
-14.53
-17.93
-21.11
-23.67
-25.13
-25.13
-23.49
-20.36
-16.16
-11.49
-6.93
-2.90
0.35
2.69
4.07
4.45
3.83
2.35
0.32
-1.83
-3.66
-4.81
-5.13
-4.67
-3.64
-2.33
-1.07
-0.11
0.36
0.32
-0.12
-0.78
-1.46
-2.08
-2.64
-3.25
-4.04
-5.11
-6.54
-8.33
-10.44
-12.68
-14.71
-16.07
-16.27
-14.97
-12.16
-8.14
-3.49
1.18
5.40
8.91
11.57
13.35
14.18
13.99
12.80
10.76
8.19
5.50
3.11
1.30
0.22
-0.19
-0.11
0.24
0.63
0.91
0.97
0.79
0.38
-0.22
-0.95
-1.80
-2.76
-3.79
-4.92
-6.11
-7.38
-8.67
-9.87
-10.73
-10.95
-10.20
-8.28
-5.22
-1.29
3.09
7.40
11.25
14.33
16.48
17.63
17.80
17.06
15.55
13.50
11.16
8.84
6.85
5.41
4.66
4.55
4.88
5.38
5.72
5.73
5.38
4.78
4.07
3.29
2.40
1.26
-0.22
-2.08
-4.27
-6.69
-9.23
-11.71
-13.85
-15.25
-15.48
-14.21
-11.41
-7.43
-2.85
1.63
5.47
8.39
10.35
11.46
11.80
11.41
10.31
8.58
6.44
4.27
2.47
1.34
0.96
1.19
1.73
2.27
2.62
2.75
2.71
2.55
2.28
1.87
1.28
0.49
-0.50
-1.72
-3.19
-4.92
-6.81
-8.63
-10.06
-10.73
-10.38
-8.87
-6.27
-2.79
1.22
5.38
9.32
12.74
15.44
17.30
18.22
18.14
17.07
15.17
12.79
10.38
8.38
7.06
6.45
6.36
6.45
6.43
6.15
5.57
4.79
3.91
3.02
2.15
1.28
0.36
-0.71
-2.05
-3.73
-5.79
-8.17
-10.73
-13.21
-15.27
-16.52
-16.62
-15.38
-12.79
-9.09
-4.68
-0.08
4.25
7.88
10.54
12.05
12.35
11.51
9.76
7.41
4.88
2.60
0.90
-0.02
-0.17
0.29
1.05
1.75
2.13
2.10
1.75
1.29
0.87
0.53
0.12
-0.59
-1.73
-3.33
-5.23
-7.25
-9.24
-11.14
-12.85
-14.14
-14.63
-13.89
-11.65
-8.01
-3.44
1.35
5.65
9.05
11.42
12.90
13.64
13.69
13.04
11.65
9.68
7.46
5.44
4.05
3.50
3.73
4.46
5.30
5.89
6.03
5.65
4.78
3.53
1.99
0.25
-1.63
-3.58
-5.55
-7.53
-9.54
-11.63
-13.79
-15.85
-17.47
-18.17
-17.49
-15.21
-11.45
-6.69
-1.65
2.96
6.64
9.21
10.74
11.47
11.62
11.29
10.51
9.32
7.83
6.28
5.01
4.27
4.16
4.52
5.01
5.29
5.11
4.44
3.41
2.28
1.22
0.30
-0.53
-1.42
-2.49
-3.78
-5.24
-6.83
-8.56
-10.49
-12.61
-14.74
-16.46
-17.23
-16.54
-14.21
-10.47
-5.92
-1.33
2.63
5.61
7.54
8.52
8.68
8.08
6.70
4.66
2.19
-0.27
-2.29
-3.54
-4.01
-3.96
-3.76
-3.73
-3.99
-4.44
-4.91
-5.30
-5.68
-6.21
-7.04
-8.15
-9.38
-10.43
-11.07
-11.20
-10.90
-10.38
-9.81
-9.33
-8.96
-8.71
-8.55
-8.36
-7.92
-6.86
-4.75
-1.28
3.55
9.37
15.51
21.22
25.89
29.23
31.27
32.22
32.33
31.81
30.77
29.33
27.67
25.99
24.52
23.41
22.74
22.42
22.29
22.14
21.80
21.14
20.12
18.71
16.94
14.81
12.36
9.71
7.00
4.40
2.06
0.09
-1.45
-2.60
-3.46
-4.18
-4.91
-5.75
-6.74
-7.85
-9.06
-10.33
-11.68
-13.03
-14.19
-14.86
-14.67
-13.36
-10.89
-7.48
-3.52
0.54
4.31
7.49
9.88
11.37
11.94
11.67
10.75
9.46
8.09
6.89
6.04
5.64
5.67
6.08
6.69
7.30
7.77
8.01
8.03
7.87
7.58
7.12
6.48
5.63
4.61
3.51
2.42
1.44
0.61
-0.10
-0.73
-1.35
-2.03
-2.80
-3.60
-4.35
-4.98
-5.48
-5.97
-6.64
-7.67
-9.09
-10.74
-12.27
-13.30
-13.51
-12.71
-10.94
-8.35
-5.21
-1.80
1.57
4.64
7.17
8.98
9.97
10.13
9.55
8.43
6.99
5.52
4.23
3.28
2.76
2.66
2.92
3.44
4.06
4.64
4.99
5.01
4.63
3.93
3.03
2.12
1.29
0.60
-0.03
-0.69
-1.46
-2.38
-3.38
-4.39
-5.31
-6.11
-6.80
-7.44
-8.10
-8.82
-9.68
-10.71
-11.96
-13.36
-14.75
-15.76
-16.00
-15.13
-13.01
-9.78
-5.84
-1.69
2.21
5.50
7.99
9.64
10.46
10.50
9.88
8.74
7.30
5.82
4.57
3.80
3.64
4.10
4.98
6.03
6.93
7.51
7.72
7.67
7.49
7.26
6.98
6.59
6.03
5.30
4.46
3.59
2.74
1.91
1.07
0.19
-0.72
-1.62
-2.44
-3.14
-3.76
-4.39
-5.22
-6.35
-7.82
-9.50
-11.06
-12.14
-12.34
-11.43
-9.38
-6.40
-2.85
0.82
4.19
6.92
8.83
9.85
10.05
9.55
8.52
7.18
5.74
4.39
3.32
2.66
2.46
2.69
3.20
3.82
4.35
4.64
4.66
4.50
4.25
4.01
3.78
3.46
2.90
2.04
0.90
-0.36
-1.55
-2.50
-3.17
-3.60
-3.95
-4.34
-4.87
-5.56
-6.40
-7.38
-8.53
-9.87
-11.37
-12.85
-13.99
-14.37
-13.65
-11.72
-8.77
-5.25
-1.71
1.41
3.95
5.93
7.47
8.60
9.27
9.32
8.71
7.56
6.17
4.92
4.10
3.83
4.02
4.50
5.06
5.57
5.92
6.07
6.00
5.70
5.21
4.60
3.93
3.24
2.53
1.77
0.90
-0.13
-1.31
-2.56
-3.77
-4.82
-5.67
-6.34
-6.96
-7.63
-8.45
-9.45
-10.58
-11.76
-12.82
-13.54
-13.65
-12.84
-10.95
-8.01
-4.29
-0.29
3.47
6.56
8.78
10.07
10.53
10.29
9.52
8.34
6.91
5.38
3.93
2.70
1.78
1.24
1.02
1.06
1.24
1.48
1.73
1.97
2.20
2.36
2.35
2.05
1.43
0.54
-0.47
-1.41
-2.16
-2.69
-3.10
-3.52
-4.04
-4.69
-5.42
-6.16
-6.87
-7.55
-8.18
-8.67
-8.82
-8.39
-7.15
-5.02
-2.10
1.36
5.00
8.53
11.72
14.45
16.65
18.24
19.12
19.25
18.77
18.03
17.58
18.01
19.72
22.69
26.51
30.38
33.44
35.00
34.84
33.13
30.41
27.29
24.25
21.50
18.99
16.51
13.88
11.05
8.16
5.48
3.29
1.76
0.88
0.48
0.29
0.10
-0.17
-0.31
0.11
1.74
5.27
11.26
19.99
31.11
43.53
55.36
64.26
68.06
65.47
56.58
42.89
26.75
10.60
-3.82
-15.68
-24.94
-31.77
-36.22
-38.08
-37.12
-33.39
-27.39
-19.89
-11.73
-3.52
4.41
11.88
18.73
24.69
29.49
32.90
34.95
35.82
35.79
35.08
33.75
31.79
29.22
26.32
23.62
21.83
21.62
23.36
26.90
31.67
36.85
41.79
46.23
50.29
54.36
58.82
63.90
69.55
75.56
81.69
87.66
93.24
98.16
102.06
104.52
104.95
102.61
96.55
85.89
70.24
50.12
27.26
4.27
-15.93
-30.87
-39.12
-40.50
-36.08
-27.92
-18.75
-11.39
-8.10
-9.97
-16.72
-26.90
-38.62
-50.37
-61.40
-71.70
-81.44
-90.41
-97.93
-103.14
-105.52
-105.32
-103.42
-100.96
-98.74
-96.95
-95.25
-93.01
-89.72
-85.17
-79.46
-72.80
-65.36
-57.20
-48.51
-39.69
-31.53
-24.93
-20.69
-19.15
-20.15
-23.16
-27.56
-32.72
-38.08
-43.04
-46.86
-48.84
-48.43
-45.55
-40.64
-34.56
-28.29
-22.55
-17.66
-13.62
-10.32
-7.80
-6.26
-5.98
-7.07
-9.43
-12.75
-16.68
-20.90
-24.95
-28.11
-29.24
-27.17
-21.23
-11.85
-0.66
9.85
17.36
20.50
19.29
14.88
8.78
2.21
-4.28
-10.66
-17.02
-23.18
-28.64
-32.86
-35.56
-36.97
-37.68
-38.37
-39.48
-40.99
-42.53
-43.57
-43.73
-42.97
-41.59
-40.17
-39.27
-39.26
-40.18
-41.68
-43.17
-43.96
-43.46
-41.39
-37.76
-32.86
-27.18
-21.21
-15.39
-10.07
-5.51
-1.95
0.42
1.50
1.37
0.29
-1.32
-2.95
-4.22
-4.89
-4.98
-4.63
-4.06
-3.39
-2.67
-1.87
-0.99
-0.13
0.48
0.57
0.03
-1.07
-2.46
-3.79
-4.76
-5.32
-5.64
-6.00
-6.73
-8.00
-9.75
-11.77
-13.65
-14.94
-15.25
-14.33
-12.12
-8.80
-4.65
-0.08
4.57
9.03
13.19
17.06
20.75
24.38
27.93
31.21
33.85
35.44
35.78
34.95
33.33
31.43
29.61
27.93
26.21
24.23
21.98
19.69
17.80
16.60
16.03
15.65
14.76
12.78
9.45
4.98
-0.12
-5.19
-9.75
-13.59
-16.79
-19.65
-22.39
-25.11
-27.60
-29.52
-30.47
-30.24
-28.82
-26.41
-23.36
-20.03
-16.75
-13.78
-11.32
-9.50
-8.39
-7.99
-8.23
-8.92
-9.84
-10.71
-11.25
-11.26
-10.73
-9.82
-8.82
-8.04
-7.67
-7.68
-7.87
-8.04
-8.06
-7.95
-7.84
-7.83
-7.96
-8.18
-8.35
-8.36
-8.16
-7.76
-7.23
-6.73
-6.46
-6.68
-7.60
-9.27
-11.49
-13.73
-15.25
-15.37
-13.72
-10.33
-5.69
-0.47
4.69
9.30
13.14
16.07
18.03
18.96
18.89
17.96
16.51
14.94
13.61
12.74
12.39
12.48
12.85
13.36
13.90
14.38
14.72
14.89
14.87
14.64
14.21
13.59
12.78
11.78
10.63
9.34
8.00
6.69
5.47
4.38
3.43
2.60
1.85
1.13
0.34
-0.66
-1.95
-3.48
-4.98
-6.01
-6.04
-4.77
-2.18
1.36
5.24
8.89
11.88
14.07
15.50
16.25
16.34
15.73
14.42
12.53
10.38
8.36
6.88
6.18
6.25
6.89
7.81
8.73
9.50
10.08
10.53
10.86
11.02
10.95
10.60
9.97
9.12
8.12
7.01
5.82
4.59
3.38
2.27
1.34
0.59
-0.08
-0.78
-1.67
-2.84
-4.32
-6.06
-7.89
-9.59
-10.84
-11.30
-10.74
-9.03
-6.29
-2.78
1.08
4.90
8.33
11.11
13.09
14.18
14.40
13.84
12.67
11.15
9.55
8.13
7.10
6.59
6.64
7.18
8.04
9.01
9.89
10.52
10.80
10.72
10.32
9.63
8.73
7.68
6.56
5.43
4.33
3.28
2.28
1.26
0.17
-1.01
-2.28
-3.59
-4.89
-6.17
-7.50
-8.97
-10.60
-12.26
-13.58
-14.09
-13.42
-11.39
-8.18
-4.23
-0.06
3.89
7.32
10.11
12.18
13.50
14.02
13.73
12.75
11.28
9.63
8.14
7.12
6.76
7.13
8.13
9.54
11.05
12.32
13.06
13.08
12.33
10.86
8.86
6.54
4.15
1.89
-0.11
-1.83
-3.30
-4.59
-5.78
-6.93
-8.11
-9.35
-10.71
-12.20
-13.83
-15.55
-17.17
-18.41
-18.87
-18.21
-16.20
-12.89
-8.57
-3.71
1.18
5.67
9.47
12.40
14.36
15.31
15.24
14.31
12.84
11.24
9.96
9.27
9.25
9.73
10.41
10.98
11.21
11.06
10.65
10.19
9.85
9.69
9.59
9.37
8.83
7.84
6.43
4.72
2.87
1.02
-0.75
-2.37
-3.83
-5.11
-6.32
-7.58
-9.08
-10.90
-12.90
-14.76
-15.96
-15.99
-14.51
-11.47
-7.16
-2.16
2.86
7.29
10.70
12.94
14.07
14.28
13.79
12.77
11.38
9.73
8.00
6.35
4.96
3.92
3.21
2.79
2.61
2.64
2.85
3.17
3.47
3.57
3.33
2.66
1.55
0.02
-1.83
-3.92
-6.09
-8.13
-9.84
-11.09
-11.90
-12.47
-13.06
-13.92
-15.11
-16.44
-17.52
-17.92
-17.30
-15.52
-12.70
-9.07
-4.96
-0.66
3.56
7.47
10.78
13.22
14.58
14.74
13.82
12.11
10.02
7.97
6.27
5.05
4.32
3.97
3.89
4.00
4.28
4.74
5.40
6.20
6.96
7.44
7.40
6.71
5.42
3.75
1.99
0.40
-0.92
-2.00
-3.00
-4.00
-5.06
-6.16
-7.26
-8.34
-9.36
-10.18
-10.57
-10.14
-8.58
-5.75
-1.77
2.92
7.79
12.33
16.23
19.36
21.72
23.33
24.18
24.28
23.69
22.61
21.34
20.21
19.44
19.11
19.16
19.47
19.97
20.66
21.59
22.74
23.99
25.14
25.93
26.13
25.61
24.33
22.33
19.70
16.53
12.92
9.02
4.96
0.93
-2.95
-6.58
-9.94
-13.00
-15.68
-17.84
-19.25
-19.65
-18.82
-16.69
-13.38
-9.18
-4.54
0.07
4.24
7.69
10.27
11.92
12.64
12.47
11.49
9.87
7.84
5.67
3.62
1.83
0.35
-0.83
-1.75
-2.46
-2.96
-3.30
-3.59
-3.96
-4.54
-5.42
-6.58
-7.96
-9.46
-10.96
-12.38
-13.68
-14.87
-16.02
-17.23
-18.63
-20.29
-22.17
-24.05
-25.58
-26.33
-25.94
-24.20
-21.10
-16.84
-11.77
-6.29
-0.80
4.31
8.69
12.11
14.42
15.62
15.84
15.32
14.32
13.12
11.95
10.97
10.29
9.93
9.86
10.00
10.25
10.49
10.64
10.62
10.36
9.80
8.89
7.60
5.96
4.05
1.97
-0.18
-2.33
-4.45
-6.58
-8.76
-11.03
-13.43
-15.92
-18.40
-20.68
-22.49
-23.57
-23.62
-22.44
-19.96
-16.27
-11.63
-6.42
-1.12
3.82
8.01
11.20
13.25
14.16
14.05
13.18
11.88
10.53
9.42
8.71
8.41
8.42
8.60
8.83
9.07
9.35
9.66
9.99
10.23
10.27
9.92
9.08
7.70
5.88
3.79
1.67
-0.29
-2.01
-3.49
-4.83
-6.12
-7.40
-8.70
-9.96
-11.07
-11.85
-12.04
-11.33
-9.39
-6.03
-1.27
4.58
10.99
17.33
23.03
27.69
31.17
33.50
34.86
35.48
35.52
35.06
34.08
32.52
30.31
27.45
24.12
20.58
17.14
14.05
11.39
9.06
6.81
4.40
1.58
-1.69
-5.35
-9.18
-12.86
-16.06
-18.57
-20.40
-21.81
-23.24
-25.10
-27.68
-31.03
-34.95
-39.04
-42.81
-45.68
-47.14
-46.73
-44.23
-39.71
-33.56
-26.47
-19.26
-12.63
-7.14
-3.03
-0.36
0.99
1.21
0.59
-0.56
-1.89
-3.11
-4.02
-4.53
-4.63
-4.39
-3.93
-3.35
-2.75
-2.29
-2.13
-2.42
-3.26
-4.63
-6.39
-8.33
-10.25
-12.04
-13.68
-15.25
-16.87
-18.68
-20.79
-23.21
-25.79
-28.18
-29.83
-30.20
-28.86
-25.74
-21.12
-15.62
-9.90
-4.54
0.12
3.91
6.74
8.55
9.34
9.24
8.53
7.59
6.81
6.46
6.65
7.30
8.30
9.48
10.68
11.77
12.63
13.20
13.39
13.16
12.46
11.25
9.56
7.50
5.27
3.09
1.12
-0.61
-2.23
-3.96
-6.00
-8.38
-11.01
-13.58
-15.70
-16.92
-16.84
-15.26
-12.23
-8.06
-3.27
1.54
5.85
9.28
11.66
12.94
13.21
12.59
11.27
9.49
7.52
5.65
4.19
3.37
3.30
3.90
4.95
6.09
7.04
7.61
7.82
7.79
7.60
7.24
6.61
5.59
4.19
2.57
0.98
-0.41
-1.58
-2.67
-3.90
-5.49
-7.48
-9.78
-12.13
-14.19
-15.53
-15.73
-14.48
-11.66
-7.47
-2.40
2.87
7.65
11.41
13.90
15.12
15.23
14.42
12.92
10.94
8.78
6.77
5.22
4.31
4.08
4.38
4.97
5.60
6.09
6.32
6.26
5.91
5.27
4.38
3.27
2.03
0.72
-0.58
-1.85
-3.12
-4.44
-5.86
-7.39
-8.97
-10.57
-12.15
-13.69
-15.12
-16.27
-16.88
-16.66
-15.42
-13.19
-10.22
-6.89
-3.58
-0.56
2.05
4.22
5.97
7.35
8.46
9.44
10.50
11.84
13.49
15.33
17.08
18.37
18.92
18.58
17.43
15.68
13.55
11.22
8.78
6.26
3.69
1.17
-1.15
-3.13
-4.73
-6.01
-7.10
-8.16
-9.31
-10.58
-11.96
-13.38
-14.69
-15.64
-15.90
-15.13
-13.07
-9.71
-5.28
-0.25
4.79
9.31
12.91
15.35
16.55
16.55
15.48
13.60
11.22
8.73
6.49
4.75
3.62
3.06
2.97
3.19
3.60
4.05
4.42
4.61
4.58
4.30
3.77
2.95
1.81
0.32
-1.44
-3.37
-5.27
-7.01
-8.58
-10.10
-11.74
-13.52
-15.28
-16.59
-16.94
-15.88
-13.21
-9.08
-3.96
1.45
6.44
10.43
13.16
14.64
15.08
14.73
13.78
12.31
10.40
8.21
6.05
4.30
3.26
3.00
3.39
4.11
4.78
5.16
5.13
4.70
3.95
2.96
1.81
0.56
-0.74
-2.04
-3.31
-4.52
-5.71
-6.95
-8.36
-10.05
-11.97
-13.90
-15.37
-15.83
-14.82
-12.21
-8.20
-3.35
1.67
6.24
9.93
12.52
13.99
14.45
14.04
12.93
11.29
9.31
7.21
5.21
3.52
2.29
1.62
1.48
1.78
2.37
3.09
3.81
4.40
4.73
4.71
4.28
3.44
2.31
1.02
-0.24
-1.35
-2.29
-3.15
-4.08
-5.27
-6.83
-8.71
-10.62
-12.12
-12.66
-11.85
-9.54
-5.94
-1.59
2.87
6.85
9.97
12.06
13.18
13.42
12.90
11.75
10.12
8.24
6.37
4.79
3.67
3.05
2.88
3.02
3.37
3.84
4.34
4.80
5.10
5.12
4.80
4.12
3.16
2.06
0.93
-0.20
-1.32
-2.50
-3.77
-5.11
-6.45
-7.73
-8.91
-10.00
-10.99
-11.78
-12.15
-11.80
-10.45
-8.01
-4.65
-0.78
3.02
6.27
8.66
10.14
10.82
10.84
10.29
9.23
7.74
6.02
4.42
3.33
3.02
3.50
4.50
5.57
6.30
6.46
6.06
5.27
4.33
3.34
2.31
1.20
-0.04
-1.31
-2.46
-3.32
-3.82
-4.06
-4.23
-4.62
-5.42
-6.73
-8.45
-10.35
-12.02
-13.04
-13.01
-11.70
-9.12
-5.54
-1.44
2.65
6.34
9.37
11.67
13.27
14.14
14.25
13.56
12.16
10.26
8.24
6.49
5.26
4.62
4.43
4.45
4.43
4.25
3.89
3.46
3.02
2.61
2.14
1.51
0.63
-0.48
-1.74
-3.02
-4.20
-5.23
-6.13
-6.93
-7.71
-8.50
-9.34
-10.24
-11.15
-11.92
-12.29
-11.92
-10.53
-7.97
-4.38
-0.15
4.16
7.99
10.97
12.93
13.96
14.20
13.79
12.80
11.25
9.23
6.92
4.61
2.63
1.24
0.52
0.35
0.50
0.68
0.74
0.66
0.52
0.42
0.38
0.34
0.15
-0.29
-0.99
-1.88
-2.79
-3.55
-4.08
-4.43
-4.75
-5.17
-5.78
-6.53
-7.31
-7.93
-8.27
-8.26
-7.85
-7.03
-5.74
-3.93
-1.64
0.96
3.61
5.98
7.84
9.06
9.62
9.57
8.94
7.77
6.15
4.21
2.18
0.36
-0.95
-1.57
-1.48
-0.82
0.14
1.13
1.94
2.51
2.85
3.04
3.12
3.08
2.87
2.47
1.89
1.22
0.52
-0.15
-0.81
-1.49
-2.19
-2.91
-3.59
-4.23
-4.90
-5.72
-6.77
-8.02
-9.27
-10.20
-10.46
-9.79
-8.13
-5.68
-2.77
0.18
2.82
4.91
6.33
7.06
7.12
6.53
5.42
3.96
2.44
1.17
0.40
0.20
0.50
1.04
1.57
1.92
2.03
2.02
2.03
2.15
2.34
2.48
2.38
1.91
1.09
0.00
-1.17
-2.22
-3.02
-3.54
-3.81
-3.95
-4.10
-4.38
-4.89
-5.61
-6.50
-7.41
-8.19
-8.66
-8.65
-8.07
-6.88
-5.16
-3.07
-0.84
1.28
3.14
4.62
5.71
6.38
6.62
6.40
5.71
4.61
3.28
1.94
0.85
0.21
0.12
0.53
1.24
2.02
2.60
2.82
2.67
2.25
1.74
1.28
0.91
0.60
0.23
-0.25
-0.85
-1.52
-2.21
-2.89
-3.58
-4.31
-5.06
-5.75
-6.27
-6.58
-6.75
-6.92
-7.20
-7.58
-7.88
-7.80
-7.06
-5.52
-3.29
-0.67
1.94
4.11
5.59
6.27
6.16
5.39
4.16
2.62
1.02
-0.44
-1.53
-2.06
-1.97
-1.31
-0.27
0.85
1.77
2.30
2.38
2.13
1.72
1.32
1.01
0.77
0.51
0.10
-0.48
-1.18
-1.87
-2.41
-2.76
-2.98
-3.20
-3.59
-4.20
-5.01
-5.90
-6.70
-7.26
-7.41
-7.07
-6.19
-4.81
-3.03
-1.02
1.02
2.87
4.37
5.42
5.95
5.98
5.53
4.72
3.68
2.60
1.62
0.86
0.35
0.08
0.00
0.05
0.20
0.40
0.67
0.99
1.31
1.53
1.53
1.23
0.62
-0.23
-1.19
-2.11
-2.91
-3.53
-4.03
-4.48
-4.98
-5.61
-6.43
-7.37
-8.28
-8.89
-8.94
-8.24
-6.75
-4.65
-2.23
0.16
2.26
3.87
4.90
5.32
5.12
4.34
3.12
1.67
0.25
-0.90
-1.63
-1.91
-1.83
-1.49
-1.01
-0.48
0.05
0.53
0.90
1.09
1.05
0.80
0.40
-0.08
-0.59
-1.08
-1.57
-2.07
-2.57
-3.10
-3.68
-4.37
-5.20
-6.15
-7.13
-7.96
-8.40
-8.25
-7.42
-5.93
-3.96
-1.75
0.42
2.34
3.86
4.89
5.38
5.33
4.77
3.80
2.61
1.41
0.45
-0.12
-0.27
-0.08
0.32
0.80
1.27
1.70
2.04
2.25
2.27
2.09
1.68
1.07
0.29
-0.62
-1.63
-2.66
-3.65
-4.55
-5.37
-6.17
-7.02
-7.93
-8.80
-9.45
-9.70
-9.39
-8.48
-7.00
-5.03
-2.70
-0.17
2.33
4.52
6.13
6.97
7.04
6.48
5.54
4.45
3.38
2.42
1.62
1.07
0.84
0.96
1.38
1.95
2.49
2.87
3.05
3.07
3.00
2.81
2.47
1.90
1.11
0.18
-0.76
-1.61
-2.33
-2.94
-3.54
-4.17
-4.90
-5.73
-6.66
-7.59
-8.35
-8.68
-8.32
-7.09
-5.00
-2.29
0.65
3.41
5.65
7.21
8.06
8.29
8.01
7.30
6.26
5.02
3.76
2.69
1.97
1.66
1.66
1.82
1.96
2.01
2.00
2.01
2.13
2.32
2.46
2.44
2.17
1.68
1.09
0.53
0.07
-0.32
-0.76
-1.35
-2.12
-3.03
-3.99
-4.86
-5.56
-6.01
-6.20
-6.06
-5.55
-4.59
-3.17
-1.31
0.83
3.03
5.04
6.60
7.56
7.85
7.54
6.75
5.70
4.61
3.71
3.19
3.10
3.37
3.80
4.15
4.23
4.00
3.54
3.02
2.63
2.44
2.41
2.41
2.30
1.95
1.33
0.49
-0.47
-1.39
-2.13
-2.62
-2.84
-2.89
-2.93
-3.13
-3.59
-4.29
-5.14
-5.93
-6.41
-6.39
-5.73
-4.41
-2.54
-0.35
1.87
3.84
5.33
6.20
6.44
6.14
5.43
4.51
3.54
2.70
2.08
1.75
1.65
1.68
1.73
1.74
1.73
1.77
1.94
2.23
2.52
2.66
2.49
2.00
1.30
0.58
-0.02
-0.41
-0.64
-0.80
-1.00
-1.32
-1.80
-2.44
-3.26
-4.28
-5.45
-6.66
-7.69
-8.28
-8.19
-7.31
-5.69
-3.52
-1.08
1.38
3.58
5.35
6.59
7.31
7.56
7.45
7.05
6.40
5.55
4.56
3.57
2.83
2.52
2.70
3.24
3.89
4.37
4.53
4.37
4.03
3.64
3.29
2.98
2.66
2.31
1.91
1.46
0.94
0.35
-0.32
-1.05
-1.79
-2.52
-3.21
-3.84
-4.39
-4.84
-5.14
-5.23
-5.08
-4.62
-3.76
-2.45
-0.65
1.59
4.07
6.56
8.80
10.65
12.09
13.18
14.01
14.59
14.90
14.92
14.71
14.40
14.23
14.43
15.19
16.52
18.28
20.11
21.58
22.35
22.32
21.69
21.02
21.00
22.27
25.28
30.14
36.70
44.59
53.34
62.49
71.65
80.59
89.22
97.59
105.77
113.67
120.93
126.98
131.21
133.34
133.54
132.47
131.03
129.92
129.31
128.65
126.66
121.84
112.95
99.67
82.87
64.52
47.15
33.05
23.56
18.65
17.09
16.95
16.39
14.23
10.18
4.69
-1.44
-7.45
-12.95
-18.07
-23.37
-29.52
-36.95
-45.55
-54.54
-62.79
-69.19
-73.07
-74.24
-72.71
-68.11
-59.23
-44.08
-20.50
12.62
54.19
100.37
145.10
181.70
204.92
212.65
206.44
190.61
170.22
149.14
128.77
108.13
85.11
57.77
25.21
-12.38
-54.19
-99.03
-145.25
-190.46
-231.57
-265.45
-290.08
-305.35
-313.04
-315.58
-314.39
-308.67
-295.83
-273.13
-239.82
-198.25
-153.34
-110.46
-73.26
-42.35
-15.82
9.04
33.97
58.76
81.67
100.74
114.96
124.73
131.38
136.26
140.07
142.69
143.57
142.28
139.06
135.00
131.86
131.39
134.62
141.09
148.77
154.52
155.34
149.48
137.21
120.49
102.04
84.10
67.75
52.88
38.81
25.01
11.43
-1.67
-14.23
-26.68
-39.86
-54.67
-71.49
-89.96
-109.10
-127.77
-145.28
-161.73
-178.06
-195.60
-215.35
-237.28
-259.93
-280.74
-296.78
-305.76
-306.83
-300.82
-289.77
-276.21
-262.33
-249.45
-237.94
-227.32
-216.62
-204.51
-189.57
-170.61
-147.05
-119.31
-88.99
-58.54
-30.66
-7.52
9.86
21.64
28.90
33.03
35.28
36.52
37.23
37.69
38.04
38.38
38.75
39.15
39.66
40.42
41.65
43.48
45.71
47.79
49.04
48.76
46.47
42.16
36.05
28.73
21.00
13.62
7.17
2.03
-1.80
-4.69
-7.18
-9.97
-13.45
-17.51
-21.93
-26.22
-29.82
-32.30
-33.49
-33.29
-32.02
-30.02
-27.42
-25.30
-24.58
-25.74
-28.69
-33.06
-37.70
-42.36
-46.75
-50.16
-53.76
-58.29
-63.47
-68.07
-70.79
-69.88
-66.76
-64.01
-63.89
-71.04
-88.13
-114.37
-145.89
-177.65
-203.58
-222.94
-237.63
-250.37
-268.26
-297.10
-338.51
-389.20
-442.27
-486.93
-517.61
-532.49
-504.10
-420.03
-285.87
-123.69
38.68
162.06
246.24
299.87
331.32
346.26
348.76
339.61
321.38
299.22
279.21
268.70
268.34
275.49
286.71
295.47
296.32
287.39
270.32
248.65
227.94
209.35
192.22
175.79
157.82
136.90
113.78
90.84
70.78
56.63
47.93
42.70
38.77
33.60
25.45
14.42
2.06
-9.27
-16.78
-19.34
-16.95
-10.26
-0.77
9.74
19.82
28.55
35.43
40.51
43.68
44.86
44.20
42.12
39.20
36.15
33.55
31.70
30.62
30.05
29.68
29.27
28.72
28.06
27.28
26.34
25.09
23.36
20.97
17.91
14.24
10.23
6.21
2.49
-0.75
-3.54
-6.20
-9.16
-12.85
-17.47
-22.83
-28.35
-33.08
-35.96
-36.06
-32.83
-26.30
-17.12
-6.42
4.44
14.17
21.87
27.08
29.82
30.37
29.22
26.90
23.99
21.11
18.80
17.43
17.11
17.63
18.59
19.56
20.22
20.48
20.40
20.04
19.37
18.19
16.28
13.47
9.83
5.63
1.28
-2.84
-6.53
-9.75
-12.63
-15.36
-18.16
-21.23
-24.66
-28.32
-31.81
-34.42
-35.26
-33.56
-28.96
-21.70
-12.58
-2.69
6.87
15.26
21.98
26.83
29.77
30.84
30.19
28.18
25.35
22.37
19.93
18.49
18.20
18.87
20.03
21.21
22.03
22.38
22.29
21.92
21.33
20.47
19.21
17.38
14.93
12.00
8.86
5.82
3.10
0.76
-1.38
-3.62
-6.29
-9.69
-13.90
-18.72
-23.64
-27.77
-30.13
-29.85
-26.51
-20.30
-12.01
-2.83
6.07
13.77
19.75
23.84
26.03
26.39
25.09
22.45
18.99
15.45
12.56
10.85
10.50
11.28
12.66
14.08
15.12
15.64
15.76
15.70
15.62
15.45
14.97
13.87
11.94
9.19
5.90
2.46
-0.76
-3.57
-5.99
-8.20
-10.41
-12.85
-15.65
-18.91
-22.58
-26.37
-29.71
-31.77
-31.75
-29.10
-23.84
-16.55
-8.20
0.17
7.67
13.76
18.23
20.99
22.10
21.66
19.86
17.12
13.95
10.98
8.77
7.66
7.69
8.60
9.91
11.17
12.01
12.34
12.28
12.03
11.77
11.55
11.24
10.65
9.62
8.10
6.25
4.30
2.44
0.79
-0.69
-2.10
-3.56
-5.15
-6.92
-8.91
-11.13
-13.43
-15.55
-16.92
-16.90
-14.92
-10.75
-4.61
2.81
10.59
17.79
23.70
27.92
30.28
30.80
29.60
26.91
23.09
18.67
14.29
10.60
8.07
6.89
6.92
7.75
8.85
9.82
10.45
10.76
10.90
10.97
10.92
10.54
9.61
8.01
5.85
3.44
1.16
-0.75
-2.22
-3.36
-4.41
-5.57
-6.97
-8.66
-10.65
-12.90
-15.26
-17.37
-18.70
-18.64
-16.69
-12.68
-6.95
-0.20
6.62
12.65
17.34
20.49
22.18
22.58
21.84
20.11
17.58
14.60
11.70
9.36
7.95
7.47
7.68
8.21
8.72
9.09
9.34
9.52
9.67
9.71
9.49
8.91
7.94
6.60
4.99
3.18
1.27
-0.70
-2.68
-4.64
-6.55
-8.42
-10.29
-12.23
-14.25
-16.22
-17.80
-18.47
-17.74
-15.27
-11.09
-5.65
0.38
6.27
11.41
15.40
18.02
19.20
19.01
17.63
15.32
12.48
9.52
6.84
4.73
3.39
2.87
3.08
3.78
4.68
5.48
5.99
6.16
5.99
5.52
4.74
3.58
2.04
0.20
-1.71
-3.47
-4.96
-6.23
-7.52
-9.09
-11.13
-13.66
-16.48
-19.21
-21.38
-22.52
-22.24
-20.33
-16.81
-12.02
-6.48
-0.86
4.22
8.29
11.06
12.46
12.52
11.38
9.28
6.59
3.85
1.62
0.41
0.50
1.83
4.04
6.60
8.99
10.84
12.02
12.56
12.55
12.08
11.16
9.80
8.02
5.87
3.47
0.91
-1.72
-4.41
-7.17
-9.99
-12.79
-15.32
-17.14
-17.79
-16.82
-14.08
-9.74
-4.31
1.43
6.76
11.10
14.23
16.15
17.02
16.98
16.12
14.53
12.37
9.95
7.63
5.75
4.50
3.90
3.82
4.10
4.56
5.07
5.48
5.61
5.31
4.51
3.30
1.85
0.43
-0.81
-1.86
-2.86
-4.03
-5.61
-7.72
-10.32
-13.13
-15.68
-17.40
-17.69
-16.14
-12.74
-7.86
-2.22
3.32
8.02
11.44
13.47
14.23
13.95
12.83
11.04
8.78
6.32
4.02
2.24
1.22
1.00
1.41
2.14
2.92
3.56
3.98
4.21
4.25
4.07
3.60
2.79
1.61
0.13
-1.52
-3.23
-4.93
-6.65
-8.43
-10.28
-12.01
-13.31
-13.74
-12.92
-10.72
-7.28
-3.03
1.47
5.68
9.22
11.88
13.58
14.33
14.17
13.21
11.62
9.69
7.71
5.98
4.69
3.96
3.78
4.09
4.75
5.57
6.32
6.80
6.84
6.38
5.45
4.19
2.79
1.41
0.21
-0.79
-1.62
-2.41
-3.35
-4.60
-6.26
-8.26
-10.28
-11.84
-12.39
-11.48
-8.98
-5.16
-0.59
4.03
8.07
11.11
12.99
13.72
13.40
12.15
10.18
7.75
5.24
3.03
1.40
0.46
0.17
0.34
0.77
1.32
1.83
2.23
2.42
2.34
1.98
1.40
0.66
-0.20
-1.13
-2.17
-3.36
-4.78
-6.51
-8.56
-10.81
-12.97
-14.61
-15.23
-14.46
-12.17
-8.59
-4.26
0.21
4.25
7.48
9.75
11.00
11.23
10.43
8.67
6.14
3.22
0.39
-1.88
-3.26
-3.68
-3.33
-2.55
-1.72
-1.11
-0.84
-0.92
-1.23
-1.66
-2.16
-2.74
-3.50
-4.50
-5.77
-7.29
-8.99
-10.74
-12.34
-13.50
-13.83
-12.97
-10.71
-7.10
-2.52
2.43
7.07
10.86
13.48
14.83
14.96
14.03
12.24
9.84
7.21
4.72
2.72
1.44
0.87
0.86
1.08
1.24
1.12
0.66
-0.07
-0.90
-1.67
-2.26
-2.69
-3.07
-3.62
-4.58
-6.14
-8.31
-10.89
-13.47
-15.54
-16.55
-16.10
-13.98
-10.36
-5.65
-0.49
4.43
8.58
11.64
13.56
14.42
14.36
13.51
11.99
9.95
7.63
5.37
3.46
2.16
1.50
1.41
1.70
2.12
2.51
2.70
2.64
2.28
1.64
0.77
-0.28
-1.41
-2.58
-3.74
-4.91
-6.16
-7.55
-9.10
-10.74
-12.22
-13.18
-13.23
-12.09
-9.66
-6.11
-1.84
2.64
6.81
10.23
12.61
13.86
14.02
13.23
11.72
9.74
7.58
5.51
3.77
2.52
1.85
1.69
1.92
2.32
2.73
2.99
3.04
2.89
2.57
2.13
1.60
0.99
0.28
-0.55
-1.52
-2.59
-3.73
-4.88
-6.06
-7.31
-8.68
-10.14
-11.52
-12.43
-12.44
-11.21
-8.63
-4.95
-0.70
3.53
7.21
10.02
11.86
12.74
12.74
11.95
10.50
8.63
6.65
4.90
3.65
3.03
3.01
3.46
4.15
4.87
5.47
5.84
5.95
5.81
5.45
4.87
4.05
2.94
1.56
0.00
-1.58
-3.03
-4.23
-5.20
-6.03
-6.89
-7.89
-9.09
-10.41
-11.67
-12.58
-12.78
-11.98
-10.04
-7.04
-3.30
0.68
4.41
7.54
9.86
11.30
11.89
11.65
10.68
9.13
7.23
5.32
3.68
2.54
1.99
1.96
2.31
2.86
3.46
4.01
4.49
4.85
5.04
5.01
4.68
4.02
3.10
2.04
0.97
0.06
-0.61
-1.02
-1.20
-1.27
-1.34
-1.56
-1.94
-2.42
-2.73
-2.52
-1.46
0.61
3.60
7.21
10.99
14.54
17.54
19.76
21.00
21.05
19.73
16.92
12.74
7.52
1.86
-3.50
-7.80
-10.41
-10.96
-9.43
-6.14
-1.67
3.28
8.07
12.27
15.70
18.41
20.62
22.59
24.57
26.74
29.18
31.86
34.64
37.32
39.66
41.50
42.75
43.49
43.89
44.24
44.80
45.78
47.25
49.07
50.98
52.63
53.71
54.01
53.38
51.72
48.94
44.93
39.70
33.37
26.30
18.92
11.69
4.90
-1.37
-7.20
-12.77
-18.16
-23.33
-28.07
-32.14
-35.33
-37.50
-38.71
-39.11
-38.97
-38.60
-38.25
-38.07
-38.04
-37.99
-37.64
-36.76
-35.24
-33.21
-30.86
-28.44
-26.03
-23.61
-21.03
-18.18
-14.96
-11.36
-7.33
-2.84
2.10
7.42
12.81
17.85
22.06
25.05
26.62
26.78
25.68
23.67
21.23
18.79
16.70
15.13
14.12
13.57
13.37
13.32
13.39
13.45
13.16
11.96
9.29
4.94
-0.80
-7.23
-13.65
-19.30
-23.84
-27.55
-31.12
-35.23
-40.08
-45.07
-48.96
-50.14
-46.59
-36.53
-19.14
5.02
33.91
64.28
92.36
114.77
126.61
125.16
111.23
89.21
65.38
44.89
29.92
20.00
13.51
9.07
6.19
4.94
5.01
5.44
4.71
1.47
-4.92
-14.17
-25.38
-37.42
-47.70
-55.14
-59.90
-63.02
-65.74
-68.93
-72.80
-76.93
-80.24
-81.13
-78.11
-69.69
-54.69
-32.62
-4.07
29.07
63.50
95.11
119.72
133.75
135.35
124.94
105.09
79.89
53.73
30.14
11.07
-3.25
-13.96
-22.66
-30.78
-39.25
-48.45
-58.43
-69.02
-79.92
-90.66
-100.72
-109.48
-116.32
-120.78
-122.47
-121.24
-117.15
-110.54
-102.08
-92.65
-82.99
-73.41
-63.51
-52.29
-38.37
-20.53
1.81
28.30
57.52
87.23
114.86
138.03
155.10
165.56
170.05
170.08
167.43
163.38
158.19
151.10
140.85
126.57
108.47
88.17
68.29
51.53
39.72
33.30
31.30
31.98
33.53
34.49
33.94
31.10
25.18
15.42
1.36
-16.80
-37.94
-60.27
-81.87
-101.24
-117.63
-131.07
-141.90
-150.31
-156.05
-158.41
-156.49
-149.66
-137.70
-121.10
-100.93
-78.76
-56.42
-35.77
-18.36
-5.17
3.56
8.38
10.50
11.55
13.31
17.27
24.22
33.74
44.05
52.39
55.89
52.56
42.19
26.46
8.34
-8.93
-22.94
-32.74
-38.89
-42.97
-46.96
-52.56
-60.94
-72.58
-87.37
-104.70
-123.55
-142.68
-160.58
-175.77
-186.85
-192.87
-193.56
-189.47
-181.87
-172.30
-161.99
-151.47
-140.41
-127.98
-113.44
-96.59
-78.08
-59.14
-41.13
-24.95
-10.77
2.01
14.37
27.32
41.40
56.62
72.47
88.19
103.08
116.86
129.75
142.38
155.56
169.91
185.71
202.71
220.04
236.22
249.27
256.89
257.01
248.29
230.54
204.81
173.04
137.47
100.07
62.23
24.71
-12.21
-48.49
-84.26
-119.50
-153.76
-185.69
-212.91
-232.29
-240.92
-237.23
-221.80
-197.47
-168.50
-139.30
-113.22
-91.98
-75.81
-64.03
-55.70
-49.99
-46.15
-43.43
-41.01
-38.13
-34.32
-29.63
-24.59
-19.94
-16.30
-13.88
-12.40
-11.29
-9.97
-8.17
-5.99
-3.78
-1.88
-0.34
1.11
2.99
5.78
9.65
14.35
19.27
23.66
26.91
28.71
29.13
28.54
27.41
26.21
25.22
24.56
24.14
23.85
23.54
23.15
22.71
22.31
21.99
21.75
21.51
21.12
20.51
19.63
18.55
17.41
16.35
15.51
14.97
14.73
14.72
14.78
14.73
14.37
13.59
12.44
11.14
10.02
9.46
9.72
10.84
12.61
14.65
16.50
17.72
18.09
17.57
16.34
14.66
12.85
11.15
9.70
8.60
7.89
7.56
7.56
7.76
7.94
7.89
7.46
6.64
5.57
4.47
3.56
2.99
2.78
2.84
3.04
3.22
3.22
2.87
2.04
0.72
-1.01
-2.86
-4.36
-5.02
-4.45
-2.46
0.79
4.84
9.09
12.93
15.92
17.89
18.93
19.26
19.14
18.71
17.99
16.93
15.51
13.83
12.06
10.42
9.08
8.05
7.20
6.40
5.55
4.64
3.76
3.03
2.56
2.41
2.60
3.10
3.83
4.72
5.71
6.80
8.00
9.35
10.81
12.29
13.79
15.39
17.35
19.88
22.99
26.39
29.47
31.54
32.09
30.90
28.03
23.64
17.97
11.24
3.78
-3.89
-11.16
-17.43
-22.35
-25.89
-28.38
-30.31
-32.15
-34.23
-36.63
-39.17
-41.59
-43.56
-44.84
-45.30
-44.90
-43.58
-41.30
-38.08
-34.16
-30.04
-26.42
-23.91
-22.57
-21.78
-20.26
-16.57
-9.69
0.49
13.09
26.45
38.72
48.38
54.65
57.49
57.56
55.90
53.66
51.83
50.92
50.84
50.86
49.94
47.22
42.40
36.04
29.34
23.65
19.92
18.15
17.27
15.44
10.67
1.59
-11.77
-27.76
-43.39
-55.26
-60.73
-58.94
-51.11
-40.00
-28.65
-19.16
-12.12
-6.76
-1.89
3.29
8.68
13.57
17.18
19.22
20.03
20.23
20.24
20.05
19.22
17.30
14.18
10.28
6.42
3.44
1.88
1.74
2.60
3.73
4.46
4.35
3.35
1.72
-0.06
-1.51
-2.29
-2.31
-1.72
-0.88
-0.18
0.02
-0.47
-1.70
-3.52
-5.59
-7.39
-8.30
-7.72
-5.23
-0.81
5.09
11.63
17.82
22.81
26.14
27.75
27.95
27.18
25.82
24.13
22.27
20.32
18.37
16.48
14.66
12.87
11.02
9.00
6.78
4.46
2.21
0.19
-1.45
-2.76
-3.83
-4.87
-6.08
-7.60
-9.50
-11.75
-14.20
-16.56
-18.56
-19.96
-20.72
-21.00
-21.08
-21.25
-21.66
-22.22
-22.73
-22.95
-22.80
-22.32
-21.70
-21.12
-20.66
-20.29
-19.93
-19.45
-18.82
-18.07
-17.27
-16.54
-15.91
-15.39
-14.92
-14.41
-13.80
-13.09
-12.34
-11.59
-10.88
-10.18
-9.46
-8.67
-7.86
-7.14
-6.63
-6.39
-6.38
-6.46
-6.43
-6.19
-5.72
-5.14
-4.62
-4.27
-4.13
-4.15
-4.28
-4.45
-4.68
-4.97
-5.32
-5.70
-6.09
-6.47
-6.86
-7.28
-7.70
-8.00
-8.07
-7.82
-7.23
-6.40
-5.51
-4.78
-4.39
-4.41
-4.77
-5.30
-5.77
-5.99
-5.88
-5.48
-4.93
-4.38
-4.01
-3.89
-4.12
-4.75
-5.76
-7.07
-8.49
-9.78
-10.68
-11.08
-11.05
-10.79
-10.61
-10.71
-11.12
-11.73
-12.27
-12.53
-12.39
-11.91
-11.23
-10.51
-9.83
-9.10
-8.24
-7.17
-5.95
-4.74
-3.74
-3.07
-2.69
-2.48
-2.31
-2.13
-1.98
-1.98
-2.15
-2.41
-2.58
-2.46
-1.95
-1.15
-0.24
0.54
1.05
1.29
1.37
1.40
1.47
1.56
1.63
1.61
1.47
1.21
0.88
0.55
0.27
0.04
-0.14
-0.35
-0.63
-0.97
-1.30
-1.47
-1.40
-1.06
-0.56
-0.05
0.29
0.37
0.22
-0.02
-0.24
-0.35
-0.40
-0.51
-0.74
-1.08
-1.42
-1.66
-1.72
-1.65
-1.57
-1.58
-1.71
-1.91
-2.11
-2.27
-2.40
-2.59
-2.90
-3.30
-3.74
-4.14
-4.47
-4.74
-4.99
-5.20
-5.28
-5.13
-4.69
-4.02
-3.30
-2.69
-2.31
-2.07
-1.79
-1.33
-0.63
0.15
0.79
1.10
1.04
0.77
0.49
0.36
0.32
0.24
-0.04
-0.55
-1.13
-1.50
-1.46
-1.00
-0.33
0.23
0.40
0.10
-0.55
-1.32
-2.02
-2.51
-2.79
-2.90
-2.89
-2.77
-2.57
-2.34
-2.14
-2.02
-2.04
-2.19
-2.48
-2.86
-3.28
-3.64
-3.82
-3.71
-3.30
-2.70
-2.07
-1.61
-1.41
-1.42
-1.53
-1.64
-1.69
-1.73
-1.80
-1.92
-2.04
-2.07
-1.95
-1.67
-1.34
-1.02
-0.76
-0.54
-0.30
-0.01
0.31
0.61
0.86
1.04
1.18
1.29
1.35
1.27
0.95
0.36
-0.45
-1.31
-2.04
-2.48
-2.58
-2.40
-2.08
-1.74
-1.49
-1.35
-1.29
-1.27
-1.24
-1.15
-1.02
-0.88
-0.82
-0.89
-1.10
-1.38
-1.63
-1.78
-1.78
-1.67
-1.48
-1.26
-1.01
-0.71
-0.36
-0.01
0.30
0.48
0.50
0.40
0.22
0.00
-0.27
-0.66
-1.20
-1.89
-2.63
-3.26
-3.64
-3.68
-3.40
-2.92
-2.37
-1.88
-1.48
-1.13
-0.72
-0.15
0.63
1.49
2.24
2.64
2.55
2.05
1.39
0.86
0.68
0.85
1.22
1.60
1.87
2.06
2.26
2.54
2.85
3.10
3.21
3.23
3.22
3.26
3.33
3.33
3.14
2.71
2.04
1.20
0.29
-0.61
-1.43
-2.05
-2.34
-2.25
-1.80
-1.14
-0.47
0.05
0.34
0.44
0.42
0.32
0.13
-0.19
-0.63
-1.14
-1.59
-1.89
-2.00
-1.96
-1.93
-1.99
-2.16
-2.37
-2.51
-2.55
-2.58
-2.77
-3.26
-4.02
-4.92
-5.72
-6.24
-6.45
-6.44
-6.39
-6.52
-6.97
-7.82
-9.03
-10.39
-11.48
-11.70
-10.51
-7.58
-3.09
2.30
7.63
11.95
14.72
15.87
15.75
14.86
13.63
12.25
10.80
9.33
7.95
6.85
6.11
5.69
5.37
4.88
4.06
2.95
1.73
0.66
-0.15
-0.75
-1.31
-2.01
-2.93
-3.98
-4.99
-5.77
-6.25
-6.46
-6.58
-6.87
-7.59
-8.95
-10.96
-13.37
-15.57
-16.73
-16.03
-12.94
-7.53
-0.50
7.03
13.83
19.01
22.18
23.46
23.28
22.17
20.54
18.66
16.72
14.84
13.15
11.70
10.47
9.34
8.20
6.98
5.76
4.67
3.84
3.31
2.98
2.65
2.14
1.39
0.49
-0.33
-0.82
-0.86
-0.44
0.25
0.88
1.05
0.35
-1.46
-4.42
-8.20
-12.08
-15.12
-16.37
-15.18
-11.45
-5.73
0.95
7.42
12.73
16.35
18.29
18.84
18.45
17.45
16.03
14.31
12.42
10.57
9.02
7.94
7.39
7.21
7.11
6.80
6.08
4.90
3.40
1.87
0.61
-0.13
-0.32
-0.16
-0.01
-0.24
-1.01
-2.15
-3.26
-3.93
-3.93
-3.40
-2.76
-2.43
-2.58
-3.08
-3.52
-3.54
-3.01
-2.10
-1.15
-0.44
-0.08
0.07
0.21
0.52
0.97
1.42
1.68
1.60
1.18
0.50
-0.29
-1.05
-1.72
-2.26
-2.71
-3.09
-3.44
-3.77
-4.07
-4.35
-4.61
-4.88
-5.15
-5.39
-5.50
-5.37
-4.87
-3.97
-2.80
-1.60
-0.68
-0.28
-0.47
-1.15
-2.10
-3.03
-3.70
-3.92
-3.61
-2.75
-1.43
0.21
1.96
3.56
4.79
5.52
5.76
5.63
5.30
4.90
4.49
4.05
3.54
2.94
2.30
1.70
1.22
0.88
0.67
0.54
0.45
0.35
0.23
0.04
-0.25
-0.63
-1.06
-1.46
-1.76
-1.95
-2.07
-2.19
-2.43
-2.84
-3.46
-4.29
-5.26
-6.30
-7.28
-8.05
-8.36
-7.96
-6.68
-4.52
-1.72
1.29
3.97
5.89
6.86
6.97
6.50
5.78
5.08
4.51
4.06
3.71
3.46
3.35
3.37
3.40
3.25
2.69
1.55
-0.16
-2.23
-4.34
-6.12
-7.37
-8.01
-8.18
-8.10
-7.92
-7.69
-7.30
-6.57
-5.36
-3.71
-1.85
-0.17
0.93
1.20
0.67
-0.40
-1.61
-2.51
-2.73
-2.08
-0.57
1.61
4.11
6.52
8.44
9.64
10.10
9.96
9.49
8.91
8.35
7.77
7.10
6.30
5.46
4.71
4.20
3.97
3.95
3.99
3.93
3.72
3.41
3.08
2.81
2.57
2.33
2.02
1.67
1.31
1.02
0.80
0.66
0.58
0.56
0.66
0.90
1.31
1.78
2.14
2.18
1.82
1.09
0.16
-0.73
-1.42
-1.82
-1.94
-1.85
-1.60
-1.19
-0.61
0.14
1.00
1.82
2.43
2.67
2.42
1.68
0.61
-0.57
-1.57
-2.16
-2.22
-1.77
-1.02
-0.19
0.44
0.76
0.74
0.48
0.15
-0.14
-0.32
-0.39
-0.40
-0.38
-0.36
-0.34
-0.34
-0.45
-0.77
-1.39
-2.26
-3.15
-3.74
-3.72
-2.93
-1.46
0.34
1.99
3.09
3.44
3.20
2.72
2.41
2.51
3.00
3.63
4.08
4.12
3.71
3.01
2.20
1.44
0.81
0.31
-0.07
-0.32
-0.41
-0.42
-0.43
-0.56
-0.83
-1.16
-1.42
-1.48
-1.33
-1.03
-0.71
-0.43
-0.23
-0.09
0.00
0.02
-0.05
-0.18
-0.23
-0.09
0.33
0.92
1.49
1.77
1.60
0.97
0.03
-0.98
-1.89
-2.59
-3.11
-3.53
-3.93
-4.35
-4.81
-5.36
-6.06
-7.01
-8.28
-9.82
-11.49
-13.08
-14.46
-15.62
-16.74
-18.08
-19.85
-22.11
-24.72
-27.46
-30.16
-32.80
-35.51
-38.50
-42.02
-46.24
-51.26
-57.04
-63.35
-69.71
-75.51
-80.12
-83.16
-84.63
-84.99
-85.01
-85.42
-86.78
-89.31
-92.92
-97.29
-102.03
-106.72
-110.98
-114.58
-117.42
-119.42
-120.47
-120.16
-118.01
-113.66
-107.25
-99.61
-92.05
-85.86
-81.71
-79.38
-77.97
-76.44
-74.21
-71.36
-68.48
-66.27
-65.16
-65.31
-66.73
-69.50
-73.69
-79.08
-84.72
-88.89
-89.38
-84.26
-72.68
-55.31
-34.25
-12.47
7.04
21.86
30.47
32.33
27.66
17.43
3.31
-12.45
-27.31
-38.92
-45.62
-46.90
-43.31
-36.10
-26.60
-15.65
-3.33
10.87
27.34
45.55
63.52
78.15
86.17
85.63
76.89
62.70
47.25
34.42
26.38
22.95
22.08
21.14
18.30
13.30
7.43
2.73
1.07
3.49
10.09
20.26
33.09
47.66
63.02
78.10
91.72
102.68
110.19
114.23
115.59
115.63
115.81
117.10
119.65
122.86
125.65
126.93
125.93
122.47
116.87
109.78
101.86
93.57
85.06
76.26
67.05
57.38
47.35
37.12
26.86
16.69
6.62
-3.43
-13.69
-24.40
-35.69
-47.34
-58.54
-67.89
-73.73
-74.69
-70.15
-60.55
-47.24
-32.02
-16.64
-2.46
9.59
18.91
25.04
27.73
27.10
23.80
18.99
14.14
10.61
9.29
10.48
13.99
19.30
25.87
33.17
40.74
48.05
54.52
59.59
62.85
64.21
63.89
62.42
60.48
58.67
57.41
56.82
56.67
56.43
55.31
52.61
47.95
41.64
34.83
29.31
27.07
29.67
37.70
50.57
66.70
83.97
100.28
113.90
123.63
128.78
129.17
124.99
116.93
106.08
93.80
81.45
70.16
60.56
52.69
46.08
39.93
33.43
26.00
17.51
8.27
-1.13
-10.01
-17.87
-24.49
-29.92
-34.40
-38.22
-41.73
-45.24
-49.12
-53.65
-58.85
-64.22
-68.70
-70.75
-68.86
-62.07
-50.42
-34.98
-17.52
-0.04
15.89
29.22
39.56
46.85
51.23
52.96
52.43
50.23
47.15
43.97
41.37
39.69
39.00
39.07
39.57
40.12
40.43
40.22
39.32
37.56
34.84
31.17
26.69
21.71
16.58
11.65
7.12
2.96
-1.09
-5.51
-10.77
-17.14
-24.47
-32.00
-38.42
-42.20
-42.03
-37.31
-28.41
-16.52
-3.35
9.44
20.62
29.52
35.96
40.01
41.81
41.56
39.60
36.53
33.14
30.25
28.48
28.03
28.68
29.92
31.19
32.10
32.50
32.38
31.81
30.72
28.94
26.25
22.56
17.96
12.78
7.50
2.55
-1.78
-5.51
-8.87
-12.34
-16.43
-21.46
-27.40
-33.73
-39.41
-43.15
-43.75
-40.47
-33.35
-23.17
-11.27
0.83
11.80
20.75
27.19
31.04
32.42
31.68
29.32
26.04
22.62
19.77
17.95
17.24
17.38
17.87
18.25
18.27
17.92
17.40
16.88
16.40
15.79
14.73
12.97
10.38
7.08
3.34
-0.48
-4.06
-7.17
-9.78
-11.99
-14.07
-16.39
-19.28
-22.91
-27.08
-31.16
-34.17
-35.03
-32.99
-27.86
-20.16
-10.88
-1.24
7.65
15.01
20.37
23.52
24.45
23.35
20.60
16.77
12.58
8.67
5.55
3.43
2.34
2.11
2.49
3.21
4.01
4.65
4.96
4.81
4.15
2.99
1.35
-0.69
-3.06
-5.57
-8.00
-10.11
-11.79
-13.13
-14.46
-16.24
-18.81
-22.22
-25.98
-29.17
-30.71
-29.67
-25.64
-18.88
-10.18
-0.68
8.47
16.34
22.36
26.25
27.98
27.71
25.73
22.48
18.51
14.46
10.88
8.18
6.52
5.84
5.89
6.38
6.98
7.44
7.51
7.03
5.91
4.20
2.09
-0.20
-2.47
-4.62
-6.70
-8.82
-11.13
-13.78
-16.86
-20.38
-24.16
-27.71
-30.28
-31.01
-29.21
-24.63
-17.60
-9.00
0.06
8.46
15.45
20.68
24.11
25.87
26.08
24.88
22.46
19.20
15.66
12.44
10.05
8.71
8.30
8.52
9.05
9.64
10.22
10.70
10.97
10.85
10.13
8.70
6.61
4.06
1.29
-1.51
-4.28
-7.05
-9.94
-13.10
-16.56
-20.16
-23.43
-25.72
-26.29
-24.56
-20.33
-13.91
-6.00
2.41
10.36
17.10
22.19
25.47
26.98
26.84
25.26
22.56
19.15
15.51
12.16
9.45
7.62
6.67
6.48
6.90
7.71
8.67
9.49
9.82
9.41
8.19
6.32
4.11
1.92
-0.02
-1.67
-3.13
-4.58
-6.21
-8.16
-10.56
-13.37
-16.34
-18.93
-20.33
-19.74
-16.66
-11.17
-3.94
3.93
11.32
17.39
21.68
24.12
24.82
23.95
21.73
18.48
14.60
10.65
7.19
4.65
3.29
3.11
3.88
5.19
6.58
7.62
8.00
7.55
6.29
4.39
2.05
-0.50
-3.12
-5.70
-8.20
-10.61
-12.95
-15.33
-17.91
-20.77
-23.80
-26.59
-28.42
-28.48
-26.17
-21.39
-14.67
-7.03
0.39
6.61
11.09
13.74
14.75
14.39
12.92
10.54
7.53
4.23
1.11
-1.44
-3.16
-4.04
-4.24
-3.99
-3.48
-2.82
-2.10
-1.45
-1.04
-1.05
-1.54
-2.47
-3.65
-4.93
-6.30
-7.82
-9.65
-11.89
-14.49
-17.26
-19.82
-21.70
-22.37
-21.41
-18.57
-13.93
-7.94
-1.35
4.98
10.35
14.33
16.83
17.94
17.84
16.67
14.53
11.65
8.42
5.35
2.94
1.48
0.98
1.20
1.79
2.44
2.99
3.38
3.61
3.61
3.27
2.48
1.18
-0.60
-2.73
-5.00
-7.26
-9.40
-11.50
-13.66
-15.96
-18.27
-20.14
-20.93
-20.03
-17.17
-12.58
-7.00
-1.33
3.62
7.44
10.05
11.57
12.10
11.65
10.19
7.81
4.84
1.77
-0.84
-2.61
-3.40
-3.38
-2.88
-2.25
-1.76
-1.51
-1.49
-1.66
-1.95
-2.36
-2.94
-3.75
-4.87
-6.39
-8.35
-10.76
-13.48
-16.19
-18.36
-19.40
-18.79
-16.34
-12.26
-7.14
-1.71
3.34
7.58
10.86
13.14
14.43
14.64
13.68
11.64
8.80
5.70
2.93
0.91
-0.24
-0.74
-0.97
-1.28
-1.77
-2.36
-2.81
-2.99
-2.93
-2.87
-3.12
-3.98
-5.66
-8.21
-11.51
-15.24
-18.91
-21.81
-23.22
-22.59
-19.74
-15.00
-9.10
-2.91
2.76
7.40
10.78
12.91
13.82
13.57
12.22
9.92
7.00
3.93
1.25
-0.63
-1.55
-1.64
-1.27
-0.84
-0.65
-0.79
-1.14
-1.51
-1.79
-2.03
-2.45
-3.29
-4.74
-6.86
-9.60
-12.72
-15.89
-18.59
-20.26
-20.35
-18.55
-14.89
-9.81
-4.00
1.77
6.91
11.04
13.99
15.71
16.15
15.32
13.33
10.49
7.33
4.42
2.29
1.20
1.09
1.65
2.43
2.99
3.06
2.55
1.55
0.27
-1.08
-2.33
-3.40
-4.34
-5.32
-6.57
-8.34
-10.71
-13.49
-16.18
-18.04
-18.31
-16.52
-12.64
-7.15
-0.90
5.18
10.32
14.11
16.41
17.30
16.92
15.45
13.09
10.18
7.16
4.55
2.79
2.06
2.25
2.99
3.81
4.34
4.40
4.04
3.41
2.71
2.01
1.31
0.52
-0.48
-1.74
-3.31
-5.20
-7.34
-9.67
-11.97
-13.90
-15.00
-14.81
-13.06
-9.79
-5.37
-0.41
4.39
8.49
11.53
13.40
14.07
13.66
12.32
10.32
8.01
5.77
3.94
2.68
2.02
1.80
1.85
1.97
2.08
2.11
2.01
1.75
1.25
0.45
-0.66
-2.02
-3.53
-5.04
-6.46
-7.79
-9.07
-10.40
-11.82
-13.20
-14.24
-14.50
-13.57
-11.21
-7.50
-2.88
1.98
6.43
9.96
12.35
13.63
13.90
13.29
11.90
9.85
7.35
4.74
2.40
0.68
-0.26
-0.42
-0.03
0.64
1.27
1.65
1.68
1.34
0.68
-0.23
-1.33
-2.57
-3.91
-5.32
-6.75
-8.20
-9.71
-11.34
-13.08
-14.80
-16.18
-16.78
-16.17
-14.12
-10.71
-6.32
-1.57
2.89
6.57
9.23
10.84
11.48
11.20
10.06
8.15
5.70
3.13
0.94
-0.46
-0.88
-0.48
0.36
1.18
1.62
1.56
1.07
0.33
-0.47
-1.25
-2.00
-2.76
-3.62
-4.64
-5.85
-7.24
-8.81
-10.52
-12.32
-14.03
-15.34
-15.83
-15.07
-12.82
-9.14
-4.44
0.59
5.23
8.91
11.33
12.50
12.62
11.95
10.66
8.89
6.78
4.55
2.50
0.94
0.06
-0.14
0.11
0.51
0.76
0.70
0.35
-0.22
-0.90
-1.69
-2.60
-3.65
-4.78
-5.91
-6.94
-7.87
-8.76
-9.78
-11.08
-12.68
-14.40
-15.85
-16.53
-15.95
-13.84
-10.23
-5.50
-0.27
4.76
9.01
12.07
13.78
14.16
13.37
11.70
9.49
7.14
5.01
3.38
2.31
1.75
1.53
1.50
1.56
1.69
1.83
1.94
1.88
1.51
0.75
-0.37
-1.75
-3.21
-4.66
-6.01
-7.26
-8.40
-9.48
-10.53
-11.64
-12.88
-14.24
-15.55
-16.43
-16.40
-15.02
-12.14
-7.93
-2.90
2.27
6.93
10.58
12.95
13.96
13.68
12.32
10.19
7.72
5.39
3.59
2.58
2.31
2.57
3.00
3.31
3.33
3.11
2.80
2.57
2.51
2.54
2.50
2.17
1.36
0.04
-1.65
-3.48
-5.17
-6.52
-7.49
-8.17
-8.76
-9.47
-10.42
-11.61
-12.88
-13.91
-14.36
-13.93
-12.43
-9.90
-6.57
-2.82
0.95
4.40
7.27
9.44
10.80
11.28
10.85
9.59
7.75
5.70
3.90
2.72
2.33
2.69
3.52
4.42
5.06
5.23
4.93
4.33
3.63
2.97
2.34
1.64
0.71
-0.54
-2.05
-3.62
-4.98
-5.91
-6.33
-6.37
-6.32
-6.55
-7.33
-8.75
-10.66
-12.65
-14.18
-14.74
-13.94
-11.74
-8.36
-4.29
-0.08
3.76
6.91
9.22
10.65
11.21
10.88
9.73
7.93
5.83
3.85
2.38
1.62
1.53
1.89
2.36
2.69
2.77
2.67
2.52
2.48
2.54
2.62
2.52
2.08
1.25
0.11
-1.16
-2.38
-3.45
-4.33
-5.04
-5.64
-6.18
-6.75
-7.46
-8.49
-9.94
-11.73
-13.56
-14.90
-15.19
-14.09
-11.57
-8.03
-4.05
-0.27
2.91
5.29
6.91
7.81
8.01
7.47
6.19
4.34
2.27
0.45
-0.75
-1.15
-0.83
-0.09
0.74
1.42
1.82
1.97
1.92
1.71
1.36
0.90
0.31
-0.37
-1.12
-1.93
-2.81
-3.78
-4.83
-5.94
-7.13
-8.44
-9.90
-11.56
-13.30
-14.86
-15.78
-15.59
-13.90
-10.69
-6.30
-1.39
3.26
7.03
9.63
11.07
11.58
11.39
10.65
9.44
7.84
6.01
4.21
2.71
1.70
1.20
1.10
1.20
1.36
1.50
1.65
1.83
2.04
2.17
2.06
1.58
0.67
-0.61
-2.10
-3.58
-4.91
-6.00
-6.92
-7.80
-8.88
-10.33
-12.21
-14.36
-16.40
-17.77
-17.92
-16.52
-13.58
-9.44
-4.74
-0.12
3.88
6.96
9.02
10.10
10.28
9.68
8.43
6.77
4.95
3.28
1.98
1.17
0.88
1.01
1.45
2.04
2.67
3.18
3.45
3.36
2.85
2.00
0.93
-0.22
-1.34
-2.42
-3.51
-4.68
-5.90
-7.13
-8.30
-9.44
-10.60
-11.83
-13.03
-13.88
-13.96
-12.88
-10.52
-7.08
-3.01
1.14
4.90
7.98
10.24
11.60
12.03
11.54
10.22
8.31
6.19
4.26
2.87
2.21
2.25
2.80
3.54
4.16
4.47
4.43
4.18
3.88
3.66
3.47
3.14
2.44
1.24
-0.40
-2.26
-4.03
-5.44
-6.36
-6.94
-7.44
-8.21
-9.47
-11.12
-12.72
-13.56
-12.87
-10.09
-5.13
1.55
9.04
16.15
21.70
24.74
24.79
21.97
17.02
11.11
5.59
1.52
-0.57
-0.87
-0.04
1.12
2.09
2.73
3.30
4.15
5.47
7.11
8.65
9.54
9.31
7.77
5.02
1.40
-2.56
-6.39
-9.71
-12.33
-14.25
-15.61
-16.60
-17.44
-18.24
-18.99
-19.52
-19.58
-18.88
-17.25
-14.68
-11.38
-7.76
-4.34
-1.61
0.09
0.71
0.44
-0.36
-1.30
-2.14
-2.79
-3.33
-3.86
-4.35
-4.68
-4.71
-4.37
-3.75
-3.02
-2.36
-1.79
-1.26
-0.70
-0.10
0.40
0.66
0.58
0.17
-0.41
-1.03
-1.62
-2.26
-3.10
-4.30
-5.91
-7.77
-9.55
-10.79
-11.05
-10.02
-7.71
-4.42
-0.71
2.76
5.47
7.20
8.00
8.10
7.79
7.22
6.41
5.36
4.15
2.97
2.11
1.78
1.99
2.57
3.23
3.71
3.93
3.91
3.76
3.52
3.14
2.48
1.46
0.08
-1.52
-3.14
-4.59
-5.83
-6.97
-8.21
-9.67
-11.28
-12.69
-13.38
-12.87
-10.89
-7.59
-3.47
0.82
4.68
7.77
10.00
11.45
12.21
12.30
11.73
10.52
8.87
7.10
5.57
4.56
4.17
4.29
4.70
5.14
5.46
5.57
5.44
5.06
4.45
3.62
2.59
1.43
0.20
-1.08
-2.34
-3.59
-4.78
-5.91
-7.00
-8.13
-9.33
-10.56
-11.61
-12.09
-11.58
-9.78
-6.71
-2.72
1.59
5.56
8.72
10.86
12.06
12.51
12.36
11.67
10.45
8.75
6.76
4.86
3.44
2.80
2.97
3.76
4.84
5.86
6.65
7.15
7.46
7.62
7.65
7.44
6.88
5.86
4.37
2.49
0.42
-1.64
-3.53
-5.20
-6.71
-8.18
-9.73
-11.36
-12.92
-14.11
-14.61
-14.15
-12.61
-10.08
-6.79
-3.08
0.71
4.23
7.19
9.34
10.53
10.72
10.00
8.59
6.81
5.00
3.40
2.21
1.44
1.08
1.05
1.30
1.77
2.34
2.88
3.23
3.23
2.84
2.07
1.07
-0.02
-1.06
-1.96
-2.70
-3.32
-3.87
-4.44
-5.11
-5.95
-6.99
-8.19
-9.40
-10.40
-10.83
-10.40
-8.92
-6.45
-3.26
0.19
3.48
6.28
8.37
9.67
10.18
9.91
8.94
7.42
5.59
3.75
2.16
0.98
0.29
0.06
0.17
0.52
0.94
1.31
1.52
1.49
1.22
0.75
0.11
-0.67
-1.55
-2.49
-3.39
-4.14
-4.71
-5.20
-5.75
-6.58
-7.74
-9.08
-10.22
-10.69
-10.08
-8.23
-5.29
-1.70
2.00
5.31
7.86
9.51
10.30
10.36
9.82
8.83
7.52
6.03
4.54
3.25
2.30
1.80
1.71
1.92
2.29
2.69
2.97
3.07
2.91
2.43
1.64
0.62
-0.54
-1.70
-2.79
-3.82
-4.86
-5.99
-7.28
-8.72
-10.20
-11.54
-12.49
-12.80
-12.28
-10.79
-8.37
-5.19
-1.63
1.89
4.95
7.26
8.71
9.30
9.12
8.29
7.01
5.51
4.04
2.86
2.12
1.86
2.02
2.46
3.04
3.64
4.15
4.47
4.49
4.16
3.48
2.54
1.42
0.23
-0.95
-2.08
-3.10
-3.99
-4.73
-5.35
-5.95
-6.67
-7.66
-8.96
-10.41
-11.67
-12.25
-11.74
-9.92
-6.91
-3.18
0.67
4.05
6.59
8.19
8.97
9.07
8.62
7.70
6.37
4.79
3.19
1.86
1.01
0.74
0.94
1.38
1.81
2.05
2.08
2.00
1.97
2.07
2.24
2.31
2.06
1.36
0.23
-1.14
-2.53
-3.73
-4.66
-5.36
-5.95
-6.57
-7.34
-8.30
-9.36
-10.33
-10.89
-10.71
-9.60
-7.55
-4.82
-1.78
1.15
3.67
5.62
6.91
7.55
7.54
6.91
5.77
4.32
2.84
1.58
0.74
0.44
0.61
1.11
1.76
2.37
2.80
3.03
3.10
3.05
2.91
2.63
2.11
1.28
0.18
-1.11
-2.41
-3.58
-4.53
-5.27
-5.86
-6.39
-6.95
-7.56
-8.23
-8.94
-9.55
-9.88
-9.71
-8.82
-7.14
-4.70
-1.77
1.31
4.15
6.45
8.03
8.86
9.00
8.55
7.60
6.26
4.69
3.12
1.82
1.03
0.85
1.22
1.86
2.45
2.69
2.46
1.76
0.72
-0.56
-2.02
-3.65
-5.43
-7.23
-8.88
-10.20
-11.08
-11.56
-11.75
-11.78
-11.73
-11.59
-11.30
-10.77
-9.93
-8.68
-6.90
-4.46
-1.31
2.53
6.85
11.39
15.90
20.22
24.33
28.28
32.13
35.89
39.55
43.04
46.33
49.37
52.05
54.20
55.58
55.98
55.26
53.45
50.75
47.35
43.43
38.98
33.89
28.09
21.62
14.67
7.54
0.52
-6.23
-12.62
-18.62
-24.13
-29.00
-33.12
-36.46
-39.11
-41.23
-42.85
-43.82
-43.87
-42.66
-40.04
-36.12
-31.23
-25.85
-20.39
-15.16
-10.28
-5.78
-1.62
2.18
5.58
8.55
11.06
13.15
14.98
16.76
18.71
20.96
23.50
26.15
28.70
30.96
32.93
34.71
36.52
38.53
40.82
43.41
46.26
49.38
52.81
56.64
60.99
65.91
71.45
77.62
84.47
92.00
100.09
108.36
116.09
122.41
126.48
127.92
126.89
124.11
120.46
116.71
113.20
109.94
106.82
103.81
101.00
98.38
95.75
92.55
88.20
82.30
74.94
66.62
58.01
49.61
41.55
33.62
25.46
16.87
7.91
-1.13
-9.82
-17.83
-24.92
-31.04
-36.19
-40.41
-43.80
-46.55
-48.98
-51.43
-54.22
-57.48
-61.14
-64.99
-68.77
-72.30
-75.51
-78.41
-81.09
-83.54
-85.65
-87.14
-87.62
-86.77
-84.40
-80.63
-75.83
-70.48
-65.08
-60.05
-55.71
-52.35
-50.19
-49.32
-49.59
-50.59
-51.74
-52.59
-52.88
-52.67
-52.14
-51.44
-50.51
-49.21
-47.40
-45.07
-42.39
-39.56
-36.74
-34.01
-31.37
-28.77
-26.13
-23.30
-20.06
-16.19
-11.56
-6.27
-0.75
4.35
8.33
10.71
11.43
10.79
9.31
7.34
4.91
1.62
-3.20
-10.12
-19.41
-30.81
-43.54
-56.37
-67.79
-76.19
-80.21
-79.12
-73.09
-63.40
-52.06
-41.35
-33.07
-28.09
-26.29
-26.89
-28.91
-31.54
-34.24
-36.69
-38.68
-40.01
-40.62
-40.69
-40.56
-40.57
-40.83
-41.04
-40.59
-38.85
-35.48
-30.62
-24.92
-19.27
-14.45
-10.95
-8.85
-7.93
-7.80
-8.07
-8.39
-8.54
-8.38
-7.94
-7.35
-6.84
-6.62
-6.85
-7.53
-8.54
-9.67
-10.71
-11.50
-11.97
-12.14
-12.11
-11.99
-11.88
-11.87
-12.03
-12.41
-13.02
-13.83
-14.78
-15.76
-16.64
-17.33
-17.82
-18.17
-18.50
-18.94
-19.52
-20.07
-20.25
-19.63
-17.87
-14.87
-10.89
-6.44
-2.12
1.54
4.27
6.03
6.93
7.13
6.76
5.92
4.77
3.50
2.38
1.68
1.57
2.07
3.02
4.13
5.08
5.68
5.91
5.93
5.91
6.00
6.16
6.25
6.09
5.59
4.80
3.89
3.07
2.53
2.35
2.52
2.97
3.59
4.26
4.87
5.35
5.65
5.83
5.99
6.36
7.21
8.78
11.19
14.35
17.95
21.41
24.04
25.14
24.26
21.24
16.40
10.37
3.94
-2.20
-7.61
-12.12
-15.77
-18.63
-20.67
-21.79
-21.91
-21.09
-19.56
-17.65
-15.66
-13.76
-12.02
-10.44
-9.02
-7.85
-7.05
-6.73
-6.91
-7.47
-8.17
-8.75
-9.02
-8.95
-8.67
-8.37
-8.28
-8.52
-9.16
-10.19
-11.55
-13.07
-14.42
-15.18
-14.93
-13.45
-10.82
-7.47
-3.97
-0.78
1.86
4.02
5.85
7.41
8.65
9.44
9.70
9.55
9.26
9.04
8.89
8.55
7.64
5.89
3.39
0.53
-2.17
-4.37
-6.02
-7.40
-8.83
-10.50
-12.31
-14.00
-15.35
-16.29
-16.98
-17.62
-18.31
-19.03
-19.64
-20.00
-20.10
-20.07
-20.12
-20.43
-21.03
-21.72
-22.13
-21.80
-20.39
-17.78
-14.17
-9.99
-5.76
-1.90
1.35
3.89
5.75
6.97
7.56
7.56
7.07
6.29
5.47
4.86
4.67
5.02
5.93
7.30
8.94
10.61
12.10
13.28
14.13
14.66
14.93
14.91
14.55
13.81
12.74
11.43
10.06
8.74
7.48
6.21
4.82
3.28
1.58
-0.18
-1.98
-3.79
-5.53
-7.06
-8.05
-8.15
-7.08
-4.80
-1.59
2.08
5.70
8.89
11.44
13.36
14.68
15.44
15.63
15.28
14.49
13.49
12.59
12.00
11.86
12.13
12.68
13.33
13.90
14.27
14.35
14.09
13.46
12.45
11.09
9.45
7.63
5.75
3.90
2.12
0.41
-1.26
-2.96
-4.75
-6.70
-8.88
-11.32
-14.06
-16.99
-19.90
-22.37
-23.90
-24.07
-22.64
-19.71
-15.70
-11.19
-6.75
-2.76
0.59
3.28
5.33
6.74
7.50
7.64
7.28
6.64
5.99
5.55
5.44
5.66
6.09
6.57
6.93
7.08
7.01
6.78
6.47
6.14
5.76
5.25
4.52
3.54
2.38
1.17
0.06
-0.88
-1.68
-2.46
-3.38
-4.55
-6.01
-7.73
-9.56
-11.28
-12.58
-13.16
-12.79
-11.37
-9.01
-5.97
-2.62
0.66
3.55
5.86
7.53
8.53
8.92
8.77
8.16
7.27
6.30
5.48
4.99
4.88
5.06
5.43
5.85
6.29
6.76
7.23
7.65
7.86
7.69
7.02
5.84
4.25
2.43
0.57
-1.16
-2.61
-3.71
-4.46
-4.98
-5.45
-6.16
-7.31
-8.97
-10.99
-13.01
-14.54
-15.09
-14.37
-12.35
-9.29
-5.64
-1.87
1.65
4.72
7.23
9.18
10.52
11.17
11.12
10.47
9.43
8.35
7.50
7.10
7.13
7.46
7.85
8.10
8.11
7.89
7.53
7.18
6.91
6.70
6.45
5.98
5.15
3.93
2.40
0.79
-0.69
-1.90
-2.89
-3.88
-5.16
-6.99
-9.45
-12.36
-15.25
-17.55
-18.73
-18.48
-16.76
-13.79
-9.96
-5.69
-1.39
2.55
5.80
8.10
9.31
9.46
8.77
7.59
6.33
5.34
4.82
4.82
5.22
5.86
6.56
7.18
7.65
7.96
8.12
8.10
7.87
7.38
6.58
5.47
4.07
2.47
0.76
-0.93
-2.53
-4.01
-5.43
-6.94
-8.67
-10.72
-12.99
-15.23
-17.01
-17.86
-17.43
-15.59
-12.50
-8.55
-4.21
0.11
4.11
7.58
10.38
12.34
13.35
13.40
12.65
11.44
10.18
9.22
8.74
8.72
9.01
9.43
9.85
10.22
10.58
10.92
11.18
11.17
10.72
9.70
8.13
6.18
4.10
2.14
0.47
-0.91
-2.13
-3.37
-4.89
-6.81
-9.16
-11.74
-14.11
-15.76
-16.18
-15.07
-12.42
-8.54
-3.92
0.93
5.58
9.69
13.02
15.45
16.88
17.31
16.85
15.68
14.09
12.36
10.73
9.36
8.31
7.55
7.05
6.72
6.53
6.40
6.25
5.95
5.37
4.41
3.05
1.39
-0.42
-2.22
-3.94
-5.58
-7.24
-8.96
-10.80
-12.76
-14.81
-16.86
-18.77
-20.29
-21.08
-20.79
-19.14
-16.09
-11.84
-6.88
-1.82
2.73
6.34
8.79
10.06
10.31
9.81
8.83
7.65
6.48
5.46
4.66
4.12
3.85
3.86
4.13
4.59
5.13
5.63
5.98
6.14
6.05
5.73
5.17
4.41
3.57
2.80
2.31
2.22
2.42
2.66
2.51
1.60
-0.29
-3.12
-6.59
-10.20
-13.35
-15.50
-16.18
-15.21
-12.64
-8.80
-4.20
0.56
4.96
8.61
11.27
12.82
13.24
12.65
11.24
9.38
7.48
5.90
4.90
4.51
4.60
4.95
5.35
5.67
5.84
5.86
5.77
5.59
5.30
4.89
4.31
3.50
2.46
1.25
-0.00
-1.17
-2.16
-2.99
-3.76
-4.62
-5.77
-7.28
-9.20
-11.39
-13.56
-15.23
-15.89
-15.07
-12.58
-8.55
-3.45
2.01
7.14
11.39
14.43
16.21
16.81
16.43
15.27
13.57
11.61
9.70
8.17
7.22
6.88
7.01
7.31
7.49
7.44
7.20
6.92
6.76
6.74
6.70
6.45
5.80
4.67
3.16
1.44
-0.29
-1.86
-3.21
-4.34
-5.36
-6.41
-7.70
-9.34
-11.37
-13.65
-15.90
-17.69
-18.55
-18.11
-16.21
-12.93
-8.62
-3.80
0.98
5.26
8.68
11.07
12.34
12.55
11.82
10.41
8.66
6.96
5.63
4.86
4.64
4.83
5.19
5.54
5.77
5.91
6.03
6.17
6.27
6.17
5.66
4.62
3.10
1.29
-0.54
-2.15
-3.44
-4.44
-5.33
-6.31
-7.58
-9.24
-11.32
-13.67
-16.00
-17.89
-18.82
-18.41
-16.47
-13.07
-8.57
-3.49
1.63
6.28
10.09
12.83
14.43
14.90
14.40
13.13
11.36
9.40
7.53
6.00
4.97
4.50
4.55
5.01
5.73
6.52
7.20
7.60
7.56
6.99
5.89
4.34
2.49
0.56
-1.25
-2.80
-4.09
-5.19
-6.31
-7.74
-9.71
-12.37
-15.63
-19.13
-22.23
-24.20
-24.42
-22.59
-18.87
-13.79
-8.10
-2.52
2.45
6.54
9.65
11.75
12.83
12.89
11.99
10.33
8.24
6.14
4.42
3.36
3.01
3.24
3.80
4.41
4.88
5.12
5.11
4.85
4.31
3.44
2.21
0.67
-1.09
-2.93
-4.72
-6.40
-7.99
-9.57
-11.27
-13.19
-15.45
-18.07
-20.91
-23.67
-25.84
-26.82
-26.10
-23.43
-18.98
-13.26
-6.97
-0.80
4.79
9.49
13.19
15.77
17.14
17.29
16.37
14.78
13.05
11.67
10.92
10.81
11.11
