1500981259.00
64.000000
-0.00
-0.00
-0.00
-0.00
-0.00
-0.00
-0.00
-0.00
-0.00
-0.00
0.00
0.01
0.01
-0.00
-0.03
-0.05
-0.05
0.00
0.13
0.36
0.66
1.01
1.37
1.72
2.06
2.40
2.79
3.24
3.80
4.42
5.06
5.66
6.20
6.68
7.15
7.68
8.31
9.14
10.09
11.04
11.88
12.56
13.14
13.76
14.65
15.96
17.91
20.32
22.90
25.38
27.58
29.57
31.68
34.32
37.81
42.54
48.15
54.10
59.83
64.97
69.58
74.14
79.34
85.71
93.76
103.00
112.62
121.73
129.77
136.75
143.30
150.75
157.77
166.64
177.95
191.79
206.97
220.57
228.25
225.36
208.53
176.87
132.76
80.05
23.07
-34.94
-92.44
-149.16
-205.23
-260.37
-313.74
-363.87
-409.83
-450.91
-486.50
-515.74
-537.23
-549.22
-549.96
-538.37
-514.21
-478.67
-433.88
-382.45
-327.02
-269.84
-212.63
-156.66
-102.95
-52.37
-5.90
35.58
71.43
101.35
125.50
144.38
158.69
169.15
176.37
180.75
182.57
182.07
179.51
175.23
169.65
163.18
156.15
148.81
141.30
133.69
126.02
118.33
110.69
103.16
95.80
88.68
81.83
75.25
68.95
62.95
57.25
51.86
46.78
42.03
37.59
33.45
29.61
26.07
22.81
19.83
17.11
14.67
12.48
10.54
8.83
7.35
6.07
4.97
4.05
3.27
2.62
2.09
1.65
1.30
1.01
0.79
0.61
0.47
0.37
0.29
0.23
0.19
0.17
0.16
0.16
0.17
0.19
0.21
0.24
0.28
0.32
0.36
0.40
0.45
0.49
0.54
0.58
0.64
0.71
0.78
0.86
0.93
0.97
0.99
0.98
0.98
1.01
1.08
1.21
1.38
1.57
1.76
1.92
2.07
2.24
2.45
2.75
3.12
3.55
3.99
4.38
4.71
5.00
5.29
5.68
6.24
6.96
7.79
8.60
9.25
9.69
9.94
10.18
10.61
11.39
12.54
13.91
15.18
16.06
16.31
15.95
15.17
14.24
13.34
12.42
11.14
8.98
5.48
0.45
-5.92
-12.96
-19.87
-25.99
-30.97
-34.90
-38.11
-41.07
-44.21
-47.86
-52.21
-57.05
-61.48
-63.86
-62.26
-55.23
-42.76
-26.58
-9.73
4.61
14.38
19.29
20.54
19.90
18.69
17.37
15.75
13.59
11.11
8.91
7.63
7.55
8.48
9.96
11.62
13.26
14.91
16.59
18.24
19.66
20.64
21.01
20.68
19.64
17.93
15.73
13.30
11.02
9.17
7.97
7.38
7.22
7.19
7.09
6.79
6.31
5.72
5.20
4.93
5.06
5.65
6.51
7.27
7.47
6.85
5.35
3.23
0.89
-1.27
-3.07
-4.53
-5.82
-7.06
-8.34
-9.62
-10.90
-12.16
-13.44
-14.73
-16.01
-17.22
-18.42
-19.81
-21.72
-24.38
-27.83
-31.78
-35.66
-38.71
-40.23
-39.65
-36.75
-31.69
-24.95
-17.24
-9.36
-2.02
4.29
9.34
13.16
15.97
18.05
19.73
21.23
22.69
24.05
25.11
25.63
25.47
24.71
23.64
22.58
21.79
21.27
20.86
20.34
19.51
18.31
16.77
14.96
12.94
10.71
8.34
5.90
3.47
1.01
-1.59
-4.51
-7.86
-11.57
-15.36
-18.87
-21.82
-24.10
-25.84
-27.40
-29.18
-31.60
-34.91
-39.08
-43.78
-48.40
-52.12
-54.15
-53.80
-50.83
-45.39
-37.99
-29.34
-20.20
-11.23
-2.89
4.46
10.58
15.35
18.79
21.08
22.51
23.40
23.99
24.36
24.46
24.22
23.76
23.30
23.15
23.48
24.16
24.87
25.19
24.85
23.82
22.31
20.55
18.74
16.90
14.97
12.85
10.50
7.97
5.35
2.78
0.45
-1.40
-2.61
-3.16
-3.26
-3.34
-4.00
-5.70
-8.65
-12.63
-17.11
-21.43
-25.05
-27.84
-30.02
-32.09
-34.60
-37.87
-41.94
-46.46
-50.78
-54.11
-55.74
-55.12
-52.09
-46.84
-39.86
-31.82
-23.40
-15.14
-7.38
-0.30
6.06
11.74
16.83
21.43
25.62
29.44
32.83
35.66
37.78
39.12
39.70
39.72
39.47
39.27
39.37
39.88
40.64
41.37
41.65
41.19
39.93
38.08
36.06
34.32
33.14
32.52
32.18
31.68
30.61
28.68
25.85
22.28
18.31
14.29
10.57
7.27
4.38
1.64
-1.26
-4.64
-8.59
-13.00
-17.53
-21.85
-25.76
-29.38
-33.06
-37.25
-42.20
-47.86
-53.83
-59.45
-63.97
-66.66
-66.89
-64.22
-58.46
-49.87
-39.09
-27.15
-15.15
-4.08
5.48
13.33
19.58
24.44
28.10
30.72
32.44
33.47
34.09
34.60
35.16
35.79
36.36
36.71
36.73
36.51
36.18
35.93
35.81
35.74
35.54
34.93
33.71
31.75
29.09
25.87
22.37
18.90
15.70
12.91
10.46
8.13
5.61
2.65
-0.90
-4.92
-9.12
-13.13
-16.62
-19.47
-21.85
-24.15
-26.90
-30.54
-35.25
-40.83
-46.70
-51.99
-55.74
-57.09
-55.46
-50.76
-43.37
-34.10
-24.00
-14.00
-4.78
3.40
10.58
16.89
22.42
27.07
30.69
33.16
34.53
34.97
34.79
34.26
33.62
32.98
32.42
32.00
31.79
31.87
32.21
32.68
32.97
32.73
31.63
29.54
26.58
23.06
19.37
15.88
12.81
10.20
7.91
5.68
3.15
0.05
-3.78
-8.28
-13.22
-18.18
-22.77
-26.70
-29.81
-32.22
-34.20
-36.31
-39.21
-43.45
-49.25
-56.08
-62.77
-67.68
-69.30
-66.69
-59.90
-49.83
-37.90
-25.54
-13.79
-3.23
5.98
13.87
20.46
25.77
29.82
32.70
34.62
35.89
36.79
37.55
38.27
38.94
39.50
39.91
40.20
40.47
40.79
41.12
41.34
41.23
40.61
39.42
37.77
35.82
33.69
31.43
28.96
26.25
23.29
20.16
16.96
13.72
10.42
7.01
3.48
-0.14
-3.80
-7.52
-11.32
-15.25
-19.27
-23.22
-26.94
-30.31
-33.44
-36.72
-40.58
-45.36
-50.98
-56.87
-61.98
-65.07
-65.01
-61.18
-53.66
-43.22
-31.15
-18.84
-7.43
2.41
10.49
17.00
22.29
26.64
30.23
33.13
35.34
36.94
38.03
38.69
39.01
38.99
38.62
38.00
37.28
36.69
36.39
36.40
36.54
36.55
36.17
35.29
33.93
32.22
30.24
28.09
25.80
23.37
20.83
18.16
15.32
12.27
9.03
5.72
2.55
-0.31
-2.83
-5.20
-7.71
-10.65
-14.07
-17.79
-21.53
-25.05
-28.40
-31.84
-35.78
-40.53
-46.06
-51.92
-57.35
-61.37
-63.08
-61.82
-57.29
-49.74
-39.82
-28.61
-17.26
-6.77
2.21
9.51
15.29
19.91
23.65
26.68
29.03
30.66
31.55
31.74
31.32
30.39
29.08
27.53
25.95
24.59
23.69
23.39
23.69
24.39
25.10
25.39
24.84
23.20
20.44
16.80
12.76
8.88
5.61
3.16
1.33
-0.32
-2.33
-5.11
-8.71
-12.83
-16.98
-20.69
-23.67
-26.00
-27.98
-30.09
-32.80
-36.40
-40.91
-46.00
-51.02
-55.05
-57.14
-56.51
-52.81
-46.18
-37.21
-26.81
-15.96
-5.55
3.72
11.45
17.47
21.79
24.59
26.07
26.52
26.22
25.45
24.52
23.74
23.37
23.62
24.51
25.89
27.40
28.60
29.14
28.83
27.73
26.03
23.95
21.53
18.77
15.65
12.30
9.03
6.18
3.90
2.02
0.10
-2.34
-5.55
-9.36
-13.34
-16.97
-19.96
-22.40
-24.59
-27.00
-29.97
-33.74
-38.39
-43.86
-49.89
-55.97
-61.25
-64.65
-65.14
-62.04
-55.32
-45.67
-34.32
-22.59
-11.60
-1.96
6.17
12.93
18.52
23.06
26.56
28.98
30.39
30.94
30.91
30.56
30.06
29.49
28.86
28.17
27.52
27.06
26.97
27.31
27.94
28.47
28.44
27.49
25.57
22.96
20.04
17.22
14.66
12.36
10.21
8.11
6.00
3.79
1.34
-1.55
-5.02
-9.04
-13.30
-17.37
-20.88
-23.72
-26.07
-28.31
-30.85
-34.00
-37.94
-42.74
-48.34
-54.43
-60.32
-64.97
-67.12
-65.72
-60.31
-51.20
-39.47
-26.60
-14.01
-2.71
6.82
14.64
20.95
26.06
30.11
33.14
35.16
36.23
36.53
36.35
36.00
35.71
35.52
35.31
34.93
34.24
33.30
32.36
31.71
31.60
32.01
32.68
33.21
33.20
32.40
30.76
28.40
25.50
22.25
18.80
15.27
11.77
8.43
5.28
2.30
-0.60
-3.59
-6.79
-10.26
-13.91
-17.61
-21.20
-24.55
-27.63
-30.50
-33.36
-36.51
-40.29
-44.91
-50.19
-55.53
-59.80
-61.70
-60.21
-54.92
-46.29
-35.48
-23.99
-13.11
-3.65
4.18
10.57
15.86
20.30
23.94
26.66
28.33
28.98
28.89
28.47
28.14
28.13
28.40
28.68
28.67
28.16
27.24
26.14
25.16
24.43
23.85
23.13
21.92
20.03
17.49
14.57
11.60
8.79
6.17
3.57
0.73
-2.48
-6.03
-9.70
-13.22
-16.41
-19.30
-22.13
-25.34
-29.32
-34.28
-40.08
-46.13
-51.51
-55.10
-55.98
-53.63
-48.15
-40.20
-30.75
-20.85
-11.25
-2.39
5.56
12.52
18.41
23.09
26.42
28.46
29.38
29.55
29.31
28.87
28.29
27.49
26.43
25.12
23.75
22.55
21.75
21.36
21.18
20.89
20.17
18.86
17.02
14.89
12.71
10.60
8.49
6.21
3.60
0.64
-2.61
-6.02
-9.50
-13.04
-16.55
-19.88
-22.87
-25.45
-27.80
-30.41
-33.86
-38.58
-44.51
-50.98
-56.76
-60.40
-60.67
-56.99
-49.61
-39.53
-28.20
-17.04
-7.08
1.28
8.15
13.88
18.75
22.80
25.92
27.98
29.09
29.55
29.75
29.95
30.16
30.21
29.94
29.39
28.78
28.44
28.53
28.91
29.20
29.00
28.06
26.38
24.16
21.61
18.82
15.77
12.41
8.77
4.95
1.10
-2.77
-6.77
-11.05
-15.74
-20.72
-25.75
-30.47
-34.68
-38.44
-42.05
-45.87
-50.18
-55.10
-60.57
-66.58
-73.16
-80.35
-87.94
-95.27
-101.25
-104.61
-104.35
-100.14
-92.46
-82.35
-70.96
-59.08
-46.96
-34.39
-21.03
-6.80
8.07
23.02
37.46
50.88
62.91
73.32
81.90
88.45
92.84
95.10
95.49
94.47
92.57
90.21
87.63
84.83
81.65
77.89
73.44
68.35
62.82
57.10
51.43
45.93
40.61
35.43
30.39
25.59
21.19
17.32
13.99
11.04
8.17
5.04
1.46
-2.55
-6.76
-10.91
-14.79
-18.42
-22.04
-26.06
-30.87
-36.71
-43.43
-50.42
-56.66
-60.87
-61.93
-59.19
-52.74
-43.38
-32.36
-20.98
-10.28
-0.84
7.16
13.80
19.16
23.33
26.38
28.40
29.60
30.22
30.51
30.64
30.69
30.67
30.60
30.49
30.37
30.28
30.24
30.19
29.99
29.46
28.42
26.75
24.42
21.57
18.41
15.19
12.10
9.25
6.60
4.02
1.35
-1.54
-4.62
-7.82
-11.01
-14.09
-17.02
-19.93
-23.06
-26.70
-31.12
-36.38
-42.18
-47.79
-52.17
-54.18
-52.98
-48.29
-40.53
-30.71
-20.04
-9.61
-0.11
8.19
15.29
21.29
26.23
30.09
32.80
34.32
34.71
34.12
32.86
31.26
29.69
28.37
27.35
26.52
25.74
24.93
24.12
23.36
22.60
21.59
19.97
17.47
14.13
10.32
6.61
3.47
1.04
-0.92
-2.84
-5.14
-8.00
-11.36
-14.98
-18.60
-22.06
-25.32
-28.43
-31.51
-34.76
-38.38
-42.56
-47.35
-52.46
-57.20
-60.49
-61.11
-58.18
-51.47
-41.68
-30.17
-18.58
-8.23
0.22
6.86
12.17
16.74
20.88
24.57
27.61
29.81
31.10
31.60
31.47
30.91
30.06
29.04
27.96
26.94
26.15
25.67
25.50
25.49
25.45
25.09
24.21
22.76
20.81
18.54
16.14
13.72
11.27
8.68
5.81
2.62
-0.88
-4.60
-8.39
-12.17
-15.86
-19.42
-22.84
-26.14
-29.39
-32.67
-36.18
-40.24
-45.11
-50.84
-57.06
-62.93
-67.20
-68.64
-66.39
-60.34
-51.07
-39.73
-27.60
-15.73
-4.84
4.78
13.00
19.86
25.44
29.87
33.27
35.77
37.43
38.29
38.40
37.88
36.90
35.72
34.50
33.32
32.20
31.09
30.05
29.18
28.56
28.06
27.43
26.30
24.33
21.52
18.11
14.53
11.20
8.33
5.85
3.55
1.16
-1.50
-4.45
-7.65
-10.96
-14.28
-17.48
-20.46
-23.17
-25.58
-27.78
-29.99
-32.52
-35.73
-39.84
-44.81
-50.08
-54.69
-57.38
-57.03
-53.02
-45.53
-35.39
-23.90
-12.36
-1.76
7.38
14.96
21.10
26.00
29.79
32.52
34.20
34.84
34.56
33.50
31.92
30.07
28.25
26.66
25.47
24.77
24.55
24.68
24.96
25.12
24.83
23.89
22.23
19.93
17.27
14.60
12.17
10.08
8.15
6.01
3.30
-0.13
-4.11
-8.27
-12.12
-15.37
-18.01
-20.26
-22.48
-25.01
-28.08
-31.74
-35.89
-40.12
-43.78
-45.99
-45.87
-42.86
-36.94
-28.70
-19.14
-9.32
-0.14
7.88
14.59
19.98
24.12
27.07
28.85
29.54
29.30
28.38
27.12
25.82
24.72
23.91
23.34
22.92
22.49
22.00
21.42
20.76
19.96
18.91
17.43
15.46
13.03
10.33
7.63
5.09
2.79
0.58
-1.70
-4.27
-7.16
-10.31
-13.54
-16.66
-19.60
-22.38
-25.20
-28.30
-31.91
-36.04
-40.51
-44.85
-48.47
-50.76
-51.19
-49.41
-45.36
-39.18
-31.21
-22.05
-12.38
-2.88
5.88
13.58
20.08
25.44
29.77
33.12
35.52
36.96
37.44
37.05
35.93
34.32
32.54
30.90
29.71
29.11
29.04
29.29
29.53
29.43
28.79
27.51
25.64
23.25
20.44
17.37
14.25
11.35
8.90
7.05
5.73
4.70
3.62
2.08
-0.19
-3.33
-7.25
-11.61
-16.00
-20.00
-23.37
-26.16
-28.72
-31.57
-35.20
-39.83
-45.25
-50.73
-55.21
-57.54
-56.85
-52.83
-45.80
-36.65
-26.55
-16.62
-7.65
-0.04
6.22
11.35
15.66
19.41
22.80
25.89
28.62
30.86
32.44
33.30
33.50
33.22
32.71
32.16
31.66
31.19
30.65
29.94
29.03
27.89
26.56
25.07
23.50
21.92
20.44
19.15
18.06
17.11
16.08
14.73
12.86
10.43
7.54
4.41
1.29
-1.69
-4.52
-7.29
-10.10
-12.99
-15.92
-18.79
-21.49
-23.97
-26.24
-28.35
-30.43
-32.63
-35.19
-38.39
-42.37
-46.95
-51.59
-55.41
-57.44
-56.93
-53.57
-47.63
-39.78
-30.83
-21.52
-12.41
-3.89
3.77
10.37
15.77
19.99
23.21
25.69
27.66
29.22
30.34
30.92
30.89
30.28
29.26
28.05
26.87
25.84
25.02
24.41
23.97
23.63
23.25
22.64
21.62
20.05
17.95
15.49
12.96
10.63
8.56
6.67
4.72
2.56
0.20
-2.19
-4.39
-6.24
-7.74
-9.03
-10.38
-11.99
-14.05
-16.55
-19.39
-22.39
-25.33
-28.03
-30.45
-32.69
-35.07
-37.96
-41.59
-45.83
-50.11
-53.47
-54.89
-53.54
-49.10
-41.86
-32.58
-22.31
-12.08
-2.78
5.04
11.08
15.35
18.06
19.54
20.24
20.51
20.67
20.90
21.28
21.78
22.32
22.76
22.95
22.82
22.39
21.80
21.26
21.00
21.05
21.26
21.27
20.66
19.12
16.66
13.65
10.67
8.32
6.87
6.22
5.96
5.55
4.58
2.85
0.50
-2.24
-5.17
-8.15
-11.22
-14.47
-18.01
-21.95
-26.34
-31.15
-36.15
-40.90
-44.77
-47.00
-46.95
-44.26
-39.00
-31.71
-23.25
-14.55
-6.44
0.53
6.22
10.73
14.29
17.12
19.32
20.89
21.81
22.12
22.03
21.79
21.64
21.60
21.55
21.36
20.97
20.50
20.18
20.17
20.47
20.85
21.00
20.57
19.41
17.53
15.10
12.41
9.69
7.14
4.83
2.68
0.59
-1.61
-4.05
-6.85
-9.98
-13.31
-16.64
-19.73
-22.41
-24.70
-26.79
-28.98
-31.61
-34.84
-38.62
-42.59
-46.17
-48.71
-49.58
-48.37
-44.88
-39.18
-31.62
-22.78
-13.39
-4.22
4.12
11.27
17.13
21.77
25.36
28.00
29.71
30.52
30.50
29.88
28.94
27.93
27.03
26.23
25.47
24.72
24.04
23.56
23.28
23.08
22.67
21.76
20.22
18.15
15.88
13.71
11.76
9.86
7.75
5.25
2.47
-0.27
-2.66
-4.62
-6.35
-8.20
-10.45
-13.14
-16.03
-18.73
-20.97
-22.65
-23.91
-25.04
-26.39
-28.23
-30.71
-33.81
-37.25
-40.57
-43.11
-44.21
-43.35
-40.30
-35.16
-28.34
-20.48
-12.26
-4.33
2.87
9.09
14.26
18.41
21.64
23.99
25.46
26.09
25.98
25.38
24.63
24.03
23.73
23.66
23.55
23.18
22.48
21.61
20.81
20.25
19.92
19.59
18.98
17.93
16.47
14.82
13.18
11.63
10.08
8.33
6.15
3.49
0.35
-3.09
-6.65
-10.08
-13.18
-15.81
-17.95
-19.72
-21.37
-23.21
-25.53
-28.48
-32.02
-35.84
-39.37
-41.92
-42.85
-41.70
-38.37
-33.16
-26.60
-19.38
-12.11
-5.23
1.02
6.57
11.35
15.23
18.08
19.75
20.24
19.81
18.90
18.08
17.78
18.19
19.15
20.27
21.11
21.37
20.96
20.04
18.87
17.74
16.77
15.91
14.95
13.61
11.79
9.52
7.06
4.69
2.59
0.72
-1.18
-3.41
-6.19
-9.42
-12.81
-15.93
-18.51
-20.56
-22.36
-24.33
-26.83
-30.03
-33.88
-38.20
-42.67
-46.86
-50.17
-51.84
-51.13
-47.59
-41.30
-32.94
-23.51
-14.08
-5.40
2.14
8.55
13.93
18.41
21.98
24.62
26.36
27.35
27.78
27.86
27.71
27.38
26.86
26.17
25.43
24.82
24.51
24.49
24.62
24.62
24.20
23.27
21.91
20.32
18.68
17.07
15.44
13.64
11.61
9.34
6.93
4.48
1.98
-0.66
-3.54
-6.67
-9.88
-12.89
-15.47
-17.56
-19.35
-21.29
-23.90
-27.55
-32.27
-37.66
-42.94
-47.17
-49.43
-49.14
-46.12
-40.66
-33.38
-25.03
-16.35
-7.95
-0.22
6.58
12.40
17.28
21.27
24.44
26.81
28.38
29.19
29.44
29.36
29.26
29.32
29.59
30.01
30.50
30.97
31.36
31.56
31.37
30.60
29.15
27.16
24.95
22.96
21.43
20.35
19.46
18.41
17.01
15.24
13.29
11.36
9.48
7.51
5.23
2.49
-0.71
-4.16
-7.55
-10.63
-13.25
-15.43
-17.41
-19.54
-22.21
-25.73
-30.09
-34.92
-39.52
-42.95
-44.31
-43.00
-38.87
-32.32
-24.16
-15.37
-6.87
0.71
7.09
12.29
16.50
19.90
22.60
24.55
25.77
26.27
26.24
25.90
25.48
25.13
24.85
24.57
24.19
23.73
23.34
23.21
23.48
24.02
24.46
24.31
23.20
21.05
18.17
15.03
12.04
9.35
6.82
4.16
1.16
-2.16
-5.54
-8.70
-11.40
-13.62
-15.51
-17.36
-19.43
-21.95
-25.07
-28.81
-32.98
-37.13
-40.54
-42.36
-41.88
-38.65
-32.72
-24.61
-15.14
-5.22
4.37
13.12
20.76
27.16
32.24
35.95
38.23
39.22
39.22
38.74
38.26
38.09
38.27
38.53
38.46
37.76
36.37
34.46
32.34
30.29
28.48
26.91
25.47
23.96
22.15
19.85
16.94
13.38
9.12
3.98
-2.41
-10.55
-20.78
-32.95
-46.18
-59.10
-70.27
-78.77
-84.59
-88.58
-92.10
-96.36
-102.05
-109.02
-116.30
-122.26
-124.92
-122.30
-112.81
-95.77
-71.53
-41.57
-8.19
26.00
58.50
87.33
111.14
129.28
141.58
148.32
150.03
147.44
141.38
132.72
122.33
110.96
99.20
87.40
75.83
64.69
54.15
44.38
35.43
27.18
19.35
11.53
3.41
-5.13
-13.85
-22.26
-29.72
-35.68
-39.88
-42.41
-43.75
-44.55
-45.46
-46.89
-48.89
-51.17
-53.26
-54.71
-55.32
-55.26
-54.92
-54.84
-55.42
-56.80
-58.81
-60.97
-62.62
-63.03
-61.57
-57.90
-52.04
-44.43
-35.73
-26.68
-17.93
-9.84
-2.59
3.75
9.18
13.66
17.22
19.92
21.86
23.21
24.16
24.93
25.79
27.01
28.82
31.31
34.40
37.78
41.00
43.58
45.15
45.56
44.86
43.30
41.19
38.79
36.22
33.36
29.98
25.80
20.68
14.74
8.33
1.85
-4.38
-10.32
-16.17
-22.21
-28.68
-35.60
-42.74
-49.71
-55.98
-61.03
-64.37
-65.69
-64.95
-62.40
-58.54
-53.95
-49.22
-44.73
-40.70
-37.21
-34.26
-31.84
-29.96
-28.64
-27.98
-28.13
-29.18
-31.15
-33.85
-36.87
-39.71
-41.96
-43.49
-44.41
-44.96
-45.40
-45.79
-46.10
-46.23
-46.24
-46.38
-46.98
-48.37
-50.66
-53.72
-57.27
-61.07
-65.06
-69.30
-73.84
-78.49
-82.79
-86.17
-88.26
-89.16
-89.42
-89.72
-90.46
-91.45
-91.95
-90.93
-87.45
-80.92
-71.11
-58.17
-42.58
-25.22
-7.41
9.27
23.39
34.15
41.69
46.97
51.48
56.66
63.53
72.52
83.52
95.94
108.91
121.38
132.45
141.55
148.65
154.10
158.37
161.67
163.83
164.50
163.49
161.03
157.84
154.80
152.61
151.59
151.64
152.27
152.52
150.71
144.46
131.28
109.53
79.57
44.18
7.85
-24.70
-50.10
-67.06
-76.10
-78.54
-75.66
-68.39
-57.86
-45.92
-35.16
-28.13
-26.28
-29.22
-34.97
-40.84
-44.61
-45.31
-43.33
-39.89
-36.34
-33.59
-31.88
-30.94
-30.30
-29.59
-28.73
-27.89
-27.30
-27.14
-27.40
-27.95
-28.65
-29.40
-30.19
-30.92
-31.35
-31.05
-29.59
-26.65
-22.21
-16.59
-10.22
-3.55
3.22
10.19
17.71
26.27
36.32
48.19
61.92
77.27
93.65
110.28
126.17
140.46
152.54
162.17
169.42
174.52
177.62
178.66
177.40
173.64
167.51
159.57
150.72
141.85
133.49
125.63
117.76
109.17
99.22
87.54
74.13
59.32
43.65
27.83
12.61
-1.42
-13.91
-24.85
-34.57
-43.61
-52.65
-62.32
-73.10
-85.22
-98.37
-111.73
-124.02
-133.97
-140.85
-144.73
-146.37
-146.79
-146.67
-146.13
-144.85
-142.43
-138.70
-133.87
-128.41
-122.85
-117.62
-113.05
-109.31
-106.33
-103.57
-100.08
-94.60
-86.17
-74.58
-60.49
-45.26
-30.31
-16.55
-4.14
7.40
18.73
30.19
41.42
51.25
57.95
59.61
54.74
42.93
25.15
3.75
-18.05
-37.02
-50.75
-58.15
-59.36
-55.45
-47.90
-38.31
-28.26
-19.20
-12.13
-7.06
-2.73
3.08
12.43
25.99
42.24
57.77
68.64
72.17
68.05
58.41
46.69
35.97
27.81
22.07
17.57
13.12
8.18
2.92
-2.14
-6.65
-10.50
-13.73
-16.28
-17.83
-17.91
-16.25
-13.10
-9.29
-6.08
-4.57
-5.26
-7.78
-10.94
-13.20
-13.17
-10.17
-4.41
3.11
10.98
17.79
22.59
25.06
25.46
24.48
22.93
21.43
20.30
19.51
18.75
17.69
16.14
14.05
11.60
9.03
6.61
4.55
2.99
1.99
1.45
1.15
0.75
-0.14
-1.80
-4.37
-7.76
-11.64
-15.62
-19.23
-22.11
-23.95
-24.57
-23.95
-22.16
-19.35
-15.73
-11.51
-6.87
-2.04
2.82
7.50
11.84
15.72
18.97
21.43
22.94
23.44
22.98
21.81
20.24
18.60
17.10
15.73
14.36
12.76
10.83
8.56
6.11
3.72
1.60
-0.04
-1.18
-1.91
-2.50
-3.22
-4.30
-5.81
-7.61
-9.50
-11.13
-12.24
-12.57
-12.03
-10.69
-8.77
-6.57
-4.35
-2.19
0.07
2.62
5.56
8.66
11.48
13.45
14.23
13.78
12.45
10.73
9.02
7.54
6.24
5.01
3.78
2.61
1.64
1.01
0.70
0.51
0.14
-0.66
-2.01
-3.77
-5.70
-7.55
-9.25
-10.89
-12.60
-14.41
-16.12
-17.36
-17.70
-16.89
-14.88
-11.86
-8.10
-3.85
0.69
5.35
9.87
13.87
16.94
18.79
19.36
18.87
17.77
16.50
15.38
14.46
13.59
12.62
11.45
10.13
8.76
7.43
6.13
4.80
3.41
1.99
0.63
-0.63
-1.90
-3.41
-5.41
-7.97
-10.80
-13.35
-14.97
-15.20
-13.93
-11.43
-8.18
-4.62
-1.05
2.37
5.50
8.18
10.19
11.35
11.62
11.14
10.14
8.86
7.49
6.13
4.84
3.67
2.69
1.90
1.25
0.63
0.00
-0.59
-1.04
-1.29
-1.34
-1.36
-1.55
-2.17
-3.34
-5.08
-7.24
-9.54
-11.62
-13.05
-13.52
-12.82
-11.00
-8.26
-4.98
-1.56
1.62
4.39
6.63
8.39
9.72
10.61
11.01
10.88
10.19
9.02
7.59
6.16
4.92
3.91
3.02
2.06
0.86
-0.58
-2.06
-3.32
-4.12
-4.45
-4.53
-4.77
-5.52
-6.93
-8.85
-10.90
-12.62
-13.72
-14.11
-13.85
-13.06
-11.71
-9.77
-7.21
-4.16
-0.91
2.14
4.65
6.42
7.45
7.88
7.86
7.54
7.02
6.35
5.59
4.77
3.85
2.83
1.69
0.47
-0.70
-1.72
-2.49
-3.02
-3.39
-3.78
-4.31
-5.12
-6.23
-7.63
-9.20
-10.80
-12.19
-13.14
-13.46
-13.06
-12.01
-10.44
-8.53
-6.41
-4.19
-1.93
0.31
2.39
4.10
5.23
5.64
5.34
4.54
3.56
2.73
2.29
2.24
2.47
2.69
2.70
2.42
1.95
1.42
0.96
0.53
-0.05
-1.00
-2.47
-4.45
-6.73
-8.97
-10.83
-12.02
-12.39
-11.89
-10.52
-8.36
-5.52
-2.24
1.15
4.29
6.81
8.46
9.19
9.08
8.38
7.34
6.16
5.01
3.94
3.04
2.34
1.85
1.51
1.21
0.82
0.23
-0.59
-1.56
-2.53
-3.33
-3.90
-4.26
-4.55
-4.97
-5.74
-7.00
-8.71
-10.67
-12.46
-13.61
-13.68
-12.51
-10.19
-7.11
-3.77
-0.65
1.96
3.92
5.21
5.86
5.84
5.11
3.73
1.87
-0.16
-2.04
-3.53
-4.59
-5.27
-5.72
-6.00
-6.08
-5.84
-5.19
-4.18
-3.06
-2.26
-2.23
-3.22
-5.10
-7.30
-9.02
-9.52
-8.58
-6.66
-4.92
-4.81
-7.61
-13.92
-23.43
-34.93
-46.59
-56.45
-62.89
-64.97
-62.56
-56.24
-47.11
-36.46
-25.65
-15.87
-8.09
-2.99
-0.85
-1.55
-4.57
-9.09
-14.16
-18.89
-22.50
-24.55
-24.86
-23.66
-21.38
-18.51
-15.29
-11.61
-7.07
-1.27
5.87
14.01
22.55
30.90
38.84
46.43
53.91
61.14
67.53
72.05
73.55
71.28
65.09
55.45
43.29
30.07
17.81
8.93
5.64
8.89
17.65
28.83
38.26
42.41
39.95
32.32
23.01
15.87
13.38
15.80
21.49
28.07
33.65
37.53
39.94
41.29
41.55
39.93
35.47
27.63
17.01
5.27
-5.58
-14.03
-19.72
-23.45
-26.53
-29.99
-34.06
-38.15
-41.26
-42.67
-42.45
-41.48
-41.00
-41.89
-44.09
-46.57
-48.02
-47.68
-46.03
-44.43
-44.03
-44.66
-44.78
-42.38
-36.55
-27.93
-18.02
-7.43
5.19
22.40
45.85
74.32
103.45
127.71
143.13
148.83
146.39
137.80
123.76
103.85
78.40
50.27
24.86
7.86
2.21
6.44
15.63
24.15
28.70
29.53
29.52
31.81
37.72
45.98
53.50
57.04
54.69
46.63
34.77
21.69
9.64
-0.19
-7.68
-13.33
-17.64
-20.79
-22.75
-23.67
-24.07
-24.84
-26.88
-30.76
-36.58
-43.97
-52.34
-60.99
-69.22
-76.40
-82.08
-86.19
-89.11
-91.42
-93.70
-96.20
-98.67
-100.55
-101.17
-100.09
-97.40
-93.74
-90.16
-87.82
-87.45
-88.90
-91.02
-92.00
-90.08
-84.56
-76.23
-67.05
-59.09
-53.33
-49.14
-44.81
-38.40
-28.56
-15.03
1.46
19.26
35.90
48.44
54.19
51.73
42.03
28.65
16.77
11.22
14.35
24.94
38.76
50.50
56.00
53.86
45.57
34.54
24.53
18.42
17.23
20.30
25.86
31.74
36.15
38.19
38.48
39.38
44.47
57.28
79.64
110.47
145.68
179.50
206.32
222.20
225.29
215.40
193.15
159.75
117.33
69.66
22.10
-19.40
-50.12
-68.28
-75.60
-76.57
-76.63
-80.48
-90.73
-107.33
-128.13
-149.80
-169.10
-183.91
-193.73
-199.35
-202.02
-202.51
-200.68
-195.65
-186.37
-172.48
-154.68
-134.76
-114.80
-96.45
-80.44
-66.46
-53.65
-41.14
-28.51
-15.76
-3.09
9.48
22.22
35.65
50.16
65.74
81.78
97.18
110.64
121.02
127.57
130.08
128.70
123.81
115.92
105.61
93.51
80.30
66.67
53.18
40.27
28.33
17.79
9.07
2.56
-1.64
-3.92
-5.04
-5.86
-6.80
-7.65
-7.53
-5.44
-0.89
5.75
13.30
20.43
26.21
30.41
33.32
35.45
37.47
40.35
45.62
55.18
70.55
91.79
116.87
141.82
161.87
173.17
174.16
165.78
150.59
131.23
109.26
84.96
58.21
29.50
0.57
-25.93
-47.43
-62.64
-72.04
-77.65
-82.04
-87.35
-94.61
-103.60
-112.99
-120.69
-124.10
-120.87
-109.64
-91.05
-68.01
-45.14
-27.33
-18.12
-18.52
-27.00
-40.35
-54.92
-67.62
-76.41
-80.24
-78.99
-73.46
-65.28
-56.66
-49.75
-45.82
-44.69
-44.65
-43.26
-38.40
-29.42
-17.36
-4.48
6.77
14.84
19.46
21.37
21.55
20.40
17.67
12.83
5.93
-1.81
-8.15
-10.71
-8.00
-0.30
10.40
21.35
30.25
36.16
39.72
42.49
45.93
50.66
56.27
61.75
66.24
69.44
71.71
73.76
76.26
79.59
83.83
89.05
95.47
103.59
113.84
126.12
139.20
150.62
157.32
156.99
149.32
136.44
122.05
109.58
100.39
93.01
84.01
69.84
48.60
20.67
-11.85
-46.43
-81.05
-114.58
-146.38
-175.87
-202.48
-225.58
-244.02
-255.64
-256.92
-243.85
-213.86
-168.14
-112.69
-57.19
-11.69
17.15
28.47
26.77
19.01
11.01
5.15
0.36
-5.74
-14.34
-23.99
-31.26
-32.56
-25.92
-11.64
8.63
33.32
62.00
95.27
133.45
175.13
216.34
251.28
273.76
279.18
265.84
235.34
192.11
142.40
93.02
50.04
17.65
-2.64
-12.03
-13.69
-11.57
-9.08
-8.37
-10.35
-15.10
-22.43
-32.10
-43.64
-56.18
-68.32
-78.44
-85.05
-87.15
-84.54
-77.83
-68.30
-57.63
-47.41
-38.83
-32.37
-28.05
-25.71
-25.46
-27.72
-33.01
-41.22
-51.10
-60.28
-65.89
-65.77
-59.46
-48.58
-36.19
-25.69
-19.47
-18.33
-21.49
-27.26
-33.88
-40.12
-45.48
-50.01
-53.88
-57.04
-59.06
-59.21
-56.87
-51.98
-45.29
-38.31
-32.72
-29.67
-29.18
-30.13
-30.91
-30.21
-27.72
-24.18
-21.00
-19.56
-20.82
-25.24
-32.87
-43.51
-56.67
-71.57
-87.08
-101.80
-114.37
-123.62
-128.88
-130.06
-127.73
-123.00
-117.21
-111.55
-106.78
-103.02
-99.92
-97.04
-94.19
-91.48
-89.11
-86.93
-84.25
-79.93
-72.98
-62.90
-49.94
-34.77
-18.14
-0.51
17.82
36.43
54.41
70.35
82.83
90.94
94.96
96.32
97.15
99.38
103.95
110.43
117.21
122.14
123.45
120.55
114.32
106.86
100.69
97.65
98.22
101.39
105.28
108.09
108.84
107.57
104.99
101.95
98.91
95.95
92.88
89.48
85.76
82.03
78.81
76.75
76.26
77.22
78.78
79.39
77.26
70.94
60.13
45.85
30.23
15.88
5.01
-1.10
-2.44
-0.14
4.08
8.35
11.36
12.68
12.67
12.27
12.15
12.32
11.76
8.80
1.89
-9.45
-23.83
-38.44
-50.37
-58.05
-61.96
-63.85
-65.23
-66.09
-64.90
-59.77
-50.10
-37.36
-24.59
-14.75
-9.32
-7.88
-8.88
-10.76
-12.73
-14.78
-16.99
-19.17
-20.86
-21.91
-22.70
-23.87
-25.91
-28.67
-31.62
-34.29
-36.82
-40.20
-45.74
-54.31
-65.55
-77.50
-87.21
-91.77
-89.51
-80.63
-67.12
-51.82
-37.37
-25.48
-16.74
-10.84
-7.07
-4.52
-2.39
-0.11
2.54
5.36
7.90
9.87
11.62
14.29
19.46
28.32
40.94
56.01
71.40
84.97
95.41
102.56
106.96
109.20
109.15
105.81
97.92
84.74
66.91
46.57
26.86
10.82
0.32
-4.47
-4.92
-3.05
-0.57
1.75
3.95
6.32
8.84
11.05
12.50
13.40
14.94
19.07
27.56
41.09
58.75
78.21
96.47
110.92
119.86
122.84
120.25
113.01
102.05
88.02
71.34
52.41
31.76
10.37
-10.52
-29.59
-45.80
-58.61
-67.99
-74.25
-77.86
-79.38
-79.63
-79.93
-82.13
-88.16
-99.22
-114.79
-132.38
-147.95
-157.41
-158.24
-150.51
-136.76
-120.83
-106.11
-94.26
-85.03
-77.03
-69.01
-60.74
-53.16
-47.67
-45.32
-46.26
-49.79
-54.86
-60.46
-65.71
-69.81
-71.83
-70.87
-66.38
-58.49
-48.06
-36.25
-23.80
-10.60
4.13
21.07
39.89
58.91
75.58
87.74
94.65
97.48
98.56
100.32
104.16
110.16
117.36
124.47
130.29
133.89
134.55
131.90
126.04
117.59
107.25
95.35
81.42
64.47
43.86
20.17
-4.72
-28.46
-49.31
-66.98
-82.18
-95.58
-106.62
-113.50
-114.11
-107.43
-94.38
-77.55
-60.02
-44.08
-30.69
-19.79
-10.97
-4.15
0.46
2.70
2.84
1.58
-0.30
-2.34
-4.56
-7.25
-10.69
-14.81
-19.15
-23.02
-25.81
-27.22
-27.42
-27.03
-26.91
-27.72
-29.50
-31.60
-32.77
-31.76
-27.73
-20.51
-10.59
1.10
13.32
24.70
33.83
39.64
41.85
41.31
39.73
39.04
40.35
43.46
47.11
49.84
50.83
50.39
49.61
49.65
51.19
54.24
58.39
63.16
68.03
72.25
74.70
74.07
69.41
60.77
49.37
37.18
25.86
16.01
6.98
-2.37
-12.44
-22.02
-28.33
-28.14
-19.21
-1.35
23.47
51.84
79.92
104.09
121.37
129.55
127.44
115.30
94.86
68.82
39.79
9.18
-23.05
-57.79
-95.50
-135.02
-173.33
-206.30
-230.17
-242.77
-244.14
-236.24
-222.14
-205.24
-188.89
-176.19
-169.80
-171.39
-180.86
-195.81
-211.78
-223.44
-226.22
-217.92
-199.31
-173.51
-144.62
-116.22
-90.44
-67.81
-47.38
-27.19
-4.84
21.91
54.28
91.81
131.97
170.61
203.02
225.25
235.16
232.91
220.69
201.90
180.09
158.00
136.97
116.89
96.70
75.32
52.53
29.46
8.24
-8.87
-20.40
-26.18
-27.15
-24.74
-20.20
-14.33
-7.52
-0.14
7.26
13.99
19.42
23.34
26.00
28.08
30.25
33.02
36.46
40.29
44.14
47.73
50.93
53.80
56.35
58.47
59.98
60.64
60.40
59.40
57.81
55.70
52.89
49.09
44.13
38.33
32.61
28.15
25.77
25.25
25.20
23.50
18.52
10.29
1.11
-5.00
-3.92
6.58
25.32
47.59
66.54
75.74
71.45
53.73
25.93
-6.77
-38.75
-64.85
-80.45
-82.13
-68.69
-42.59
-10.57
17.80
33.56
32.16
15.56
-8.94
-32.51
-49.07
-57.48
-60.33
-60.74
-59.48
-54.38
-42.56
-23.31
0.30
22.23
36.32
39.30
32.07
18.85
4.88
-5.91
-12.23
-15.30
-17.91
-23.03
-32.73
-47.57
-66.38
-86.72
-105.87
-121.77
-133.63
-141.80
-146.92
-148.82
-145.87
-135.45
-115.29
-85.29
-48.57
-11.24
19.37
36.91
37.92
22.83
-3.99
-35.25
-62.18
-76.57
-72.88
-50.07
-12.41
31.42
70.89
97.23
106.30
99.96
84.72
68.84
59.30
60.15
72.38
95.00
125.30
158.73
188.90
209.08
214.77
206.25
189.16
171.91
161.49
159.64
161.98
160.66
148.49
121.91
81.41
29.82
-29.63
-93.57
-157.41
-214.60
-257.36
-279.22
-277.49
-254.49
-216.55
-171.87
-128.35
-91.89
-65.19
-47.00
-32.46
-14.40
13.58
53.75
102.15
149.68
185.94
204.19
204.26
191.92
175.28
160.62
149.91
141.37
131.94
119.64
104.45
87.38
68.71
47.24
21.13
-10.45
-45.61
-79.79
-107.25
-123.82
-128.84
-125.61
-119.64
-115.90
-116.54
-120.06
-122.47
-119.62
-109.33
-92.32
-71.79
-51.85
-36.00
-26.39
-23.96
-29.09
-41.79
-61.21
-84.96
-109.04
-128.84
-140.76
-143.74
-139.32
-130.35
-119.04
-105.73
-89.29
-68.80
-45.27
-22.06
-3.72
6.18
6.65
-0.66
-12.65
-26.49
-40.58
-54.22
-66.61
-76.00
-79.75
-75.20
-60.87
-37.26
-6.59
28.03
63.68
98.18
130.24
159.07
184.18
205.38
223.24
239.04
254.03
268.21
279.41
283.74
277.45
259.43
232.65
203.35
178.19
161.02
151.30
145.05
137.82
127.35
114.37
101.12
88.92
76.64
61.12
39.31
10.48
-22.85
-55.85
-83.37
-102.02
-111.13
-112.38
-108.58
-102.33
-95.23
-87.85
-80.18
-72.33
-64.87
-58.71
-54.71
-53.22
-54.00
-56.40
-59.74
-63.48
-67.18
-70.31
-72.17
-72.25
-70.62
-68.25
-66.72
-67.56
-71.40
-77.63
-84.35
-88.99
-88.93
-82.12
-67.68
-46.37
-20.80
4.87
25.81
37.92
39.38
31.41
17.79
3.24
-8.72
-17.35
-24.61
-33.88
-48.00
-67.82
-92.03
-117.97
-142.84
-164.64
-182.06
-194.10
-199.70
-198.07
-189.38
-175.34
-158.81
-142.83
-129.39
-118.91
-110.70
-103.91
-98.29
-93.98
-90.68
-86.75
-79.26
-65.10
-42.63
-12.92
20.66
54.12
85.15
114.15
143.68
176.56
213.80
254.01
294.21
331.19
362.50
386.24
400.30
401.97
388.61
359.26
316.02
264.14
210.56
161.58
120.96
89.31
64.94
45.24
27.61
9.91
-9.62
-32.20
-58.27
-86.99
-116.29
-143.33
-165.48
-181.27
-190.91
-196.21
-199.85
-204.32
-211.10
-220.14
-229.93
-237.93
-241.18
-236.94
-223.27
-199.47
-166.38
-126.24
-82.27
-37.90
4.04
41.87
75.10
104.26
130.34
154.36
177.17
199.26
220.53
239.98
255.59
264.70
264.85
254.84
235.37
209.21
180.47
153.52
131.74
116.65
107.51
101.56
94.86
83.26
63.57
34.33
-3.71
-47.69
-93.06
-134.27
-165.94
-184.13
-187.58
-178.41
-161.64
-143.54
-129.35
-121.39
-118.61
-117.47
-114.02
-105.53
-91.24
-71.80
-48.25
-21.45
7.71
37.56
65.15
86.60
98.19
97.73
85.40
63.72
36.84
9.33
-14.88
-33.33
-45.12
-50.74
-51.35
-48.17
-42.07
-33.62
-23.35
-12.20
-1.50
7.36
13.48
16.76
17.78
17.40
16.21
14.40
11.92
8.65
4.55
-0.35
-5.97
-12.06
-18.16
-23.47
-27.15
-28.62
-27.84
-25.37
-22.17
-19.21
-17.30
-16.88
-18.16
-21.09
-25.38
-30.44
-35.34
-38.94
-40.27
-38.90
-35.24
-30.29
-25.25
-20.94
-17.55
-14.76
-12.23
-10.00
-8.58
-8.79
-11.32
-16.49
-24.28
-34.45
-46.55
-59.79
-72.71
-83.27
-89.36
-89.69
-84.63
-76.20
-67.41
-60.93
-58.12
-58.64
-61.08
-63.73
-65.40
-65.69
-64.62
-62.56
-60.02
-57.88
-57.35
-59.60
-65.02
-72.55
-79.63
-82.93
-79.57
-68.33
-50.29
-28.43
-6.57
11.96
25.24
33.03
36.41
37.37
38.42
42.49
52.55
70.85
97.89
131.52
167.29
199.83
225.19
242.54
254.20
263.68
273.08
281.14
283.51
275.08
252.93
218.17
175.56
131.35
90.72
56.16
27.62
3.78
-16.56
-33.87
-47.99
-58.88
-67.05
-73.61
-79.98
-87.22
-95.67
-104.63
-112.57
-117.63
-118.40
-114.46
-106.65
-96.77
-86.85
-78.34
-71.70
-66.35
-61.14
-54.94
-47.21
-38.48
-30.69
-26.99
-30.78
-44.30
-67.31
-96.75
-127.44
-153.53
-170.04
-173.81
-164.00
-141.93
-110.84
-75.39
-40.82
-11.71
9.31
22.36
30.04
36.31
44.67
56.82
72.31
88.93
103.88
114.72
120.05
120.05
116.41
111.80
108.98
109.73
114.15
120.61
126.28
128.18
124.09
113.21
96.34
75.43
53.12
32.04
14.02
-0.34
-11.85
-22.12
-32.86
-44.76
-57.11
-68.03
-75.66
-79.20
-79.47
-78.45
-78.22
-79.96
-83.67
-88.67
-94.47
-101.15
-109.15
-118.53
-128.20
-135.93
-139.09
-135.79
-125.73
-110.32
-92.14
-73.95
-57.80
-44.52
-33.81
-24.57
-15.49
-5.56
5.60
17.69
29.89
41.20
50.61
57.41
61.25
62.18
60.64
57.36
53.16
48.84
45.02
42.10
40.19
39.26
39.18
39.84
41.14
42.94
44.94
46.59
47.23
46.23
43.23
38.35
32.17
25.57
19.39
14.20
10.19
7.19
4.88
2.88
0.86
-1.50
-4.56
-8.61
-13.73
-19.65
-25.68
-30.90
-34.45
-35.86
-35.28
-33.32
-30.81
-28.35
-26.09
-23.65
-20.30
-15.38
-8.57
-0.07
9.46
19.15
28.20
36.14
42.89
48.65
53.54
57.56
60.42
61.78
61.48
59.72
56.99
53.91
50.93
48.18
45.55
42.91
40.28
37.89
36.00
34.68
33.64
32.29
30.03
26.54
21.96
16.78
11.68
7.18
3.57
0.80
-1.32
-2.92
-4.03
-4.54
-4.32
-3.33
-1.70
0.36
2.59
4.83
7.07
9.39
11.84
14.36
16.72
18.58
19.61
19.66
18.79
17.26
15.39
13.49
11.72
10.10
8.59
7.16
5.85
4.75
3.93
3.39
3.03
2.62
1.88
0.57
-1.44
-4.18
-7.61
-11.59
-16.02
-20.67
-25.15
-28.89
-31.24
-31.67
-29.96
-26.31
-21.24
-15.42
-9.44
-3.65
1.80
6.83
11.30
14.97
17.52
18.70
18.48
17.14
15.16
13.10
11.47
10.54
10.32
10.66
11.30
12.00
12.58
12.94
12.96
12.57
11.73
10.40
8.67
6.63
4.37
1.91
-0.82
-3.94
-7.45
-11.08
-14.28
-16.39
-16.82
-15.33
-12.16
-7.96
-3.55
0.36
3.41
5.61
7.20
8.43
9.39
9.89
9.62
8.31
5.80
2.09
-2.69
-8.34
-14.41
-20.11
-24.37
-26.11
-24.83
-21.02
-16.23
-12.46
-11.46
-13.86
-19.09
-25.66
-31.86
-36.33
-38.41
-37.99
-35.32
-30.83
-25.12
-18.97
-13.23
-8.59
-5.26
-2.90
-0.76
2.01
6.00
11.33
17.50
23.53
28.07
29.76
27.48
20.70
9.53
-5.36
-22.93
-41.90
-60.75
-77.79
-91.25
-99.68
-102.38
-99.87
-93.76
-86.27
-79.26
-73.56
-68.77
-63.65
-57.02
-48.30
-37.90
-26.91
-16.46
-7.14
1.32
9.78
19.28
30.42
43.05
56.31
69.11
80.48
89.85
97.00
101.84
104.22
103.94
100.88
95.01
86.51
75.64
62.89
49.44
37.51
30.39
31.73
44.26
68.83
103.94
145.94
189.86
230.21
261.88
280.89
284.99
274.13
250.51
217.74
179.65
138.97
97.00
54.27
11.72
-28.43
-62.94
-88.78
-104.70
-112.12
-114.67
-116.94
-122.91
-134.84
-153.01
-176.01
-201.46
-226.34
-247.25
-260.50
-262.80
-252.11
-228.60
-194.98
-156.00
-117.23
-83.47
-57.60
-40.12
-29.57
-23.30
-18.47
-12.77
-4.89
5.35
16.94
27.94
35.91
38.68
35.07
25.41
11.42
-4.26
-18.90
-30.32
-37.19
-39.03
-35.89
-28.22
-16.85
-3.09
11.29
24.29
34.17
40.05
42.18
41.79
40.53
39.82
40.37
42.00
43.89
45.02
44.63
42.51
39.02
34.91
30.88
27.34
24.25
21.29
18.11
14.48
10.38
5.94
1.27
-3.47
-8.09
-12.35
-15.96
-18.72
-20.52
-21.38
-21.39
-20.57
-18.91
-16.38
-13.02
-8.91
-4.19
0.96
6.33
11.65
16.58
20.71
23.68
25.25
25.37
24.21
22.13
19.61
17.03
14.56
12.09
9.25
5.52
0.45
-6.15
-14.12
-23.04
-32.34
-41.47
-49.97
-57.40
-63.30
-67.22
-68.81
-67.93
-64.71
-59.54
-52.91
-45.27
-36.81
-27.40
-16.68
-4.25
10.05
25.95
42.67
59.12
74.11
86.72
96.49
103.44
107.89
110.15
110.21
107.69
102.05
92.96
80.63
65.93
50.31
35.37
22.45
12.17
4.42
-1.49
-6.38
-10.90
-15.36
-19.84
-24.42
-29.31
-34.83
-41.20
-48.26
-55.47
-62.10
-67.55
-71.63
-74.61
-76.92
-78.89
-80.55
-81.74
-82.36
-82.57
-82.76
-83.25
-83.98
-84.31
-83.15
-79.46
-72.78
-63.55
-53.12
-43.34
-35.99
-32.29
-32.57
-36.24
-41.94
-47.78
-51.71
-51.86
-47.13
-37.64
-24.87
-11.46
-0.33
6.21
7.36
4.16
-1.00
-5.37
-6.83
-4.64
0.60
7.58
15.07
22.57
30.38
39.29
49.94
62.35
75.94
89.70
102.69
114.32
124.39
132.78
139.22
143.11
143.84
141.09
135.14
126.97
117.92
109.13
101.05
93.32
84.91
74.74
62.23
47.72
32.37
17.63
4.55
-6.63
-16.59
-26.41
-36.88
-47.91
-58.52
-67.35
-73.46
-76.97
-79.04
-81.35
-85.23
-91.14
-98.50
-106.05
-112.41
-116.55
-117.92
-116.49
-112.72
-107.47
-101.86
-97.08
-94.01
-92.80
-92.68
-92.09
-89.16
-82.31
-70.91
-55.59
-38.10
-20.81
-5.93
5.23
12.52
16.76
18.87
19.04
16.43
9.62
-2.30
-18.72
-37.22
-54.54
-68.08
-77.19
-83.38
-89.23
-96.60
-105.33
-113.13
-116.70
-113.35
-102.26
-84.55
-62.31
-37.31
-9.90
21.01
57.27
100.26
149.91
204.39
260.26
313.03
357.68
389.08
402.88
396.78
372.02
334.10
292.11
256.22
234.26
228.86
236.38
248.29
254.67
248.20
226.86
194.16
156.83
121.30
90.90
64.96
40.33
13.98
-14.84
-44.42
-71.98
-95.77
-116.14
-134.79
-152.76
-168.82
-179.56
-181.31
-172.49
-155.03
-133.68
-113.82
-99.20
-90.84
-87.31
-86.27
-85.73
-84.71
-82.99
-80.67
-77.86
-74.56
-70.53
-65.06
-56.85
-44.13
-25.40
-0.45
28.85
58.85
85.27
104.76
115.95
119.39
116.58
108.91
97.25
82.46
65.97
49.85
36.25
26.41
20.14
16.00
12.24
7.72
2.53
-2.26
-5.10
-4.72
-0.66
6.54
15.36
23.75
29.70
31.79
29.49
22.93
12.62
-0.79
-16.48
-32.96
-47.87
-58.38
-62.06
-58.09
-47.67
-33.77
-20.11
-10.07
-5.98
-9.05
-19.44
-36.37
-57.77
-80.33
-99.91
-112.65
-116.44
-111.75
-101.57
-90.28
-81.93
-78.91
-81.27
-87.29
-94.54
-101.15
-106.35
-110.32
-113.55
-116.15
-117.68
-117.62
-115.98
-113.64
-111.99
-112.17
-114.35
-117.49
-119.62
-118.52
-112.23
-99.31
-79.02
-51.61
-18.71
16.67
50.52
79.02
99.63
111.71
116.19
114.67
108.47
98.29
84.61
68.26
50.64
33.40
17.80
4.21
-7.71
-18.63
-28.99
-38.69
-47.05
-53.17
-56.36
-56.47
-54.00
-49.90
-45.13
-40.34
-35.75
-31.51
-28.00
-25.98
-26.33
-29.39
-34.41
-39.59
-42.77
-42.51
-38.84
-33.17
-27.33
-22.49
-18.60
-14.60
-9.50
-3.16
3.43
8.76
11.72
12.33
11.83
12.02
14.34
19.13
25.57
32.13
37.35
40.45
41.57
41.39
40.74
40.11
39.57
38.97
38.39
38.37
39.89
43.93
50.90
60.38
71.22
81.99
91.37
98.29
101.81
101.04
95.26
84.40
69.34
51.81
33.90
17.29
2.90
-9.05
-18.60
-25.62
-29.76
-30.98
-30.19
-29.43
-31.40
-38.35
-50.96
-67.79
-85.68
-100.85
-110.32
-112.82
-109.02
-100.84
-90.48
-79.50
-68.50
-57.40
-45.95
-34.35
-23.21
-13.21
-4.73
2.42
8.91
15.37
22.07
28.78
34.88
39.96
44.01
47.58
51.47
56.24
61.86
67.63
72.43
75.17
75.21
72.44
67.30
60.41
52.43
43.89
35.19
26.56
18.15
10.04
2.40
-4.58
-10.64
-15.52
-19.13
-21.62
-23.43
-25.04
-26.81
-28.75
-30.44
-31.24
-30.63
-28.53
-25.64
-23.44
-23.73
-28.09
-37.13
-50.16
-65.35
-80.19
-92.35
-100.26
-103.45
-102.44
-98.39
-92.70
-86.59
-80.97
-76.20
-72.22
-68.48
-64.20
-58.60
-51.19
-41.98
-31.52
-20.69
-10.44
-1.34
6.66
14.28
22.55
32.45
44.31
57.65
71.19
83.22
92.17
97.15
98.28
96.63
93.84
91.39
90.13
90.04
90.41
90.34
89.18
86.83
83.63
80.09
76.63
73.46
70.61
68.01
65.49
62.69
59.05
54.08
47.55
39.79
31.55
23.88
17.66
13.53
11.78
12.48
15.50
20.46
26.76
33.60
40.20
45.88
50.17
52.75
53.31
51.72
48.05
42.52
35.39
26.74
16.45
4.39
-9.24
-23.66
-37.37
-48.48
-55.19
-56.39
-52.07
-43.54
-33.27
-24.22
-18.99
-18.85
-23.09
-29.17
-33.71
-33.93
-29.04
-20.58
-11.68
-5.63
-4.33
-7.56
-13.19
-18.18
-20.05
-17.73
-11.65
-3.05
6.84
17.35
28.29
39.51
50.62
60.99
70.14
78.02
84.95
91.22
96.67
100.61
102.03
100.05
94.27
84.80
72.15
57.12
40.77
24.49
9.77
-2.13
-10.62
-16.05
-19.51
-22.24
-25.15
-28.48
-31.93
-35.00
-37.39
-39.19
-40.76
-42.42
-44.22
-45.79
-46.47
-45.58
-42.69
-37.85
-31.58
-24.73
-18.18
-12.65
-8.50
-5.83
-4.55
-4.56
-5.89
-8.63
-12.76
-17.97
-23.50
-28.30
-31.34
-32.02
-30.51
-27.68
-24.77
-22.91
-22.65
-23.86
-25.92
-28.05
-29.59
-29.94
-28.51
-24.67
-17.81
-7.76
5.07
19.54
34.12
47.29
57.93
65.54
70.06
71.62
70.28
66.06
58.95
49.19
37.34
24.32
11.12
-1.36
-12.49
-21.97
-29.79
-36.17
-41.40
-45.94
-50.35
-55.29
-61.45
-69.33
-79.03
-90.13
-101.62
-112.14
-120.20
-124.58
-124.60
-120.15
-111.70
-100.06
-86.27
-71.31
-55.97
-40.73
-25.69
-10.77
4.06
18.58
32.21
44.22
54.06
61.69
67.60
72.59
77.35
82.13
86.68
90.55
93.28
94.67
94.58
92.82
88.97
82.55
73.33
61.57
48.12
34.17
20.80
8.69
-2.03
-11.57
-20.34
-28.69
-36.87
-44.99
-52.96
-60.48
-67.02
-71.91
-74.53
-74.44
-71.52
-65.83
-57.51
-46.70
-33.64
-18.81
-3.15
12.09
25.71
37.09
46.55
55.38
65.35
78.05
94.20
113.40
134.35
155.37
175.01
192.34
206.88
218.33
226.40
230.89
231.93
230.11
226.21
220.71
213.22
202.43
186.78
165.32
138.37
107.47
74.59
41.16
7.44
-27.08
-62.81
-98.98
-133.36
-162.93
-185.05
-198.64
-204.52
-204.96
-202.53
-199.17
-195.62
-191.64
-186.60
-180.19
-172.69
-164.76
-157.05
-149.76
-142.58
-134.87
-126.21
-116.70
-107.06
-98.46
-92.01
-88.28
-87.11
-87.57
-88.37
-88.29
-86.60
-83.33
-79.25
-75.50
-73.16
-72.72
-73.84
-75.44
-76.11
-74.69
-70.65
-64.27
-56.31
-47.69
-39.17
-31.21
-24.06
-17.89
-12.85
-9.06
-6.40
-4.57
-3.32
-2.59
-2.78
-4.53
-8.43
-14.55
-22.33
-30.71
-38.56
-45.21
-50.47
-54.53
-57.54
-59.37
-59.59
-57.80
-53.92
-48.32
-41.66
-34.62
-27.62
-20.86
-14.31
-7.87
-1.31
5.70
13.54
22.46
32.37
42.75
52.71
61.38
68.01
72.22
73.73
72.28
67.52
59.28
47.91
34.55
21.10
9.78
2.66
1.07
5.34
14.86
28.32
44.02
60.34
75.86
89.46
100.17
107.13
109.61
107.30
100.48
90.16
77.80
64.88
52.47
41.08
30.82
21.79
14.32
8.87
5.72
4.57
4.47
4.09
2.20
-1.79
-7.54
-13.85
-19.06
-21.77
-21.53
-19.09
-16.07
-14.23
-14.66
-17.48
-22.06
-27.67
-33.73
-39.64
-44.34
-46.11
-43.14
-34.30
-19.94
-1.67
18.40
38.73
58.66
77.97
95.90
110.64
119.79
121.56
115.95
105.04
92.17
80.37
71.03
63.57
55.93
45.78
31.51
12.83
-9.20
-32.49
-54.70
-73.92
-89.14
-100.56
-109.19
-116.26
-122.57
-128.07
-132.03
-133.63
-132.55
-129.25
-124.81
-120.38
-116.69
-113.88
-111.37
-108.10
-102.64
-93.57
-79.91
-61.61
-39.79
-16.73
4.66
21.62
32.24
36.00
33.78
27.35
18.78
9.75
1.13
-7.09
-15.26
-23.61
-31.61
-37.89
-40.66
-38.48
-30.97
-19.13
-5.12
8.38
19.05
25.40
27.17
25.38
22.30
21.11
25.22
37.18
57.68
84.82
114.47
141.57
161.86
173.21
176.12
173.08
167.43
162.08
158.50
156.29
153.34
146.45
132.81
111.72
85.89
61.21
44.64
41.07
50.87
69.56
89.98
105.57
113.06
112.83
107.25
98.43
86.80
71.55
52.16
29.73
7.13
-12.34
-26.64
-36.11
-43.08
-50.39
-59.71
-70.61
-80.77
-87.39
-88.70
-85.00
-78.63
-72.83
-70.32
-72.18
-77.48
-84.07
-89.56
-92.39
-92.23
-89.67
-85.71
-81.17
-76.43
-71.46
-66.21
-60.68
-55.12
-49.83
-45.08
-40.98
-37.42
-34.20
-31.11
-28.01
-24.89
-21.85
-19.04
-16.61
-14.61
-13.03
-11.86
-11.05
-10.65
-10.70
-11.20
-12.11
-13.38
-14.96
-16.72
-18.51
-20.09
-21.20
-21.68
-21.57
-21.24
-21.20
-21.82
-22.98
-23.97
-23.64
-21.10
-16.17
-9.64
-2.82
3.11
7.56
10.67
12.92
14.66
15.96
16.87
17.87
20.10
25.11
34.17
47.64
64.57
83.15
101.27
117.23
129.95
138.80
143.34
143.16
137.96
127.89
113.77
97.11
79.88
63.98
50.78
40.89
34.06
29.52
26.21
22.86
18.04
10.23
-2.08
-19.84
-43.25
-71.44
-102.64
-134.62
-165.04
-191.92
-213.76
-229.54
-238.87
-241.89
-239.12
-231.16
-218.19
-199.80
-175.26
-144.29
-107.87
-68.55
-29.97
4.21
31.53
51.20
63.96
71.15
73.89
72.84
68.45
61.52
53.43
45.78
39.79
35.86
33.52
31.97
30.60
29.39
28.82
29.52
31.90
36.09
41.94
49.28
57.88
67.39
77.11
85.99
92.85
96.72
97.09
94.13
88.57
81.51
74.20
67.77
63.09
60.66
60.55
62.48
65.90
70.18
74.70
79.09
83.17
86.95
90.58
94.20
97.91
101.67
105.30
108.49
110.73
111.37
109.64
104.78
96.13
83.41
66.73
46.86
25.16
3.57
-15.68
-30.40
-38.95
-40.66
-36.02
-26.58
-14.43
-1.56
10.55
20.99
29.13
34.40
36.26
34.66
30.29
24.65
19.43
15.54
12.53
8.63
1.69
-9.57
-24.59
-41.25
-56.68
-68.72
-76.77
-81.82
-85.66
-89.83
-94.82
-99.91
-103.62
-104.25
-100.43
-91.41
-77.16
-58.47
-37.15
-16.05
1.23
11.27
12.06
4.06
-9.74
-24.82
-36.91
-43.69
-45.45
-44.39
-43.21
-43.74
-46.51
-51.19
-57.47
-65.65
-76.35
-89.87
-105.51
-121.55
-135.87
-146.69
-153.05
-154.71
-151.66
-143.79
-130.85
-112.91
-90.72
-65.75
-39.92
-15.00
7.82
28.04
45.61
60.67
73.31
83.53
91.33
96.78
100.01
101.06
99.87
96.31
90.31
82.06
72.09
61.20
50.24
39.92
30.63
22.39
14.97
8.04
1.40
-4.98
-10.94
-16.27
-20.78
-24.41
-27.22
-29.30
-30.75
-31.65
-32.11
-32.29
-32.33
-32.32
-32.19
-31.68
-30.42
-27.99
-24.09
-18.68
-12.09
-4.96
1.90
7.83
12.49
16.02
18.98
22.12
26.11
31.23
37.26
43.47
48.94
52.70
54.08
52.72
48.63
42.16
34.02
25.19
16.67
9.31
3.41
-1.35
-5.83
-10.91
-17.12
-24.30
-31.70
-38.49
-44.12
-48.61
-52.33
-55.67
-58.56
-60.49
-60.64
-58.32
-53.32
-46.07
-37.47
-28.59
-20.32
-13.17
-7.20
-2.23
2.03
5.75
9.01
11.85
14.37
16.82
19.49
22.56
25.89
29.13
31.79
33.49
34.08
33.71
32.71
31.45
30.18
28.90
27.30
24.96
21.55
16.95
11.36
5.13
-1.31
-7.49
-12.95
-17.24
-20.09
-21.70
-22.86
-24.89
-29.09
-36.13
-45.60
-56.19
-66.24
-74.38
-79.89
-82.51
-82.17
-78.78
-72.47
-63.93
-54.61
-46.31
-40.57
-37.95
-37.87
-38.85
-39.19
-37.50
-32.98
-25.44
-15.08
-2.51
11.37
25.55
39.03
51.15
61.69
70.74
78.49
84.89
89.69
92.55
93.33
92.23
89.67
86.08
81.72
76.75
71.55
66.91
64.00
64.01
67.64
74.71
84.23
94.70
104.71
113.15
119.19
122.13
121.23
115.87
105.81
91.52
74.15
55.30
36.56
19.16
3.89
-8.78
-18.38
-24.23
-25.53
-21.59
-12.33
1.33
17.43
33.29
46.24
54.31
56.76
54.13
47.85
39.73
31.42
24.15
18.66
15.36
14.28
15.06
16.83
18.27
17.93
14.71
8.38
-0.27
-9.62
-17.82
-23.45
-25.88
-25.40
-22.92
-19.72
-17.10
-16.22
-17.83
-22.14
-28.65
-36.34
-43.95
-50.47
-55.47
-59.15
-62.10
-64.98
-68.17
-71.74
-75.49
-79.06
-81.90
-83.35
-82.70
-79.41
-73.34
-64.94
-54.98
-44.24
-33.26
-22.15
-10.87
0.40
11.11
20.37
27.40
31.92
34.28
35.27
35.56
35.37
34.34
31.98
28.06
22.88
17.20
11.86
7.38
3.72
0.57
-2.54
-5.91
-9.70
-13.89
-18.37
-22.98
-27.56
-31.99
-36.28
-40.55
-44.86
-49.02
-52.52
-54.55
-54.37
-51.62
-46.60
-40.23
-33.69
-28.02
-23.83
-21.24
-19.92
-19.44
-19.39
-19.50
-19.60
-19.56
-19.19
-18.27
-16.64
-14.25
-11.23
-7.75
-4.04
-0.20
3.74
7.71
11.56
15.05
17.93
20.05
21.32
21.71
21.17
19.65
17.20
14.06
10.77
7.99
6.29
5.99
6.99
8.83
10.96
12.94
14.57
15.90
17.13
18.43
19.88
21.46
23.03
24.39
25.36
25.83
25.76
25.24
24.51
23.87
23.57
23.66
23.86
23.63
22.36
19.63
15.56
10.77
6.17
2.56
0.37
-0.49
-0.52
-0.33
-0.40
-0.95
-1.93
-3.09
-4.16
-4.86
-5.01
-4.51
-3.31
-1.35
1.41
4.97
9.21
13.80
18.23
21.92
24.41
25.58
25.59
24.79
23.54
22.03
20.27
18.18
15.69
12.74
9.39
5.70
1.81
-2.11
-5.94
-9.70
-13.61
-18.13
-23.78
-30.91
-39.49
-48.97
-58.48
-67.08
-74.05
-79.06
-82.12
-83.52
-83.59
-82.61
-80.74
-78.00
-74.41
-70.06
-65.09
-59.78
-54.31
-48.76
-43.03
-36.90
-30.11
-22.57
-14.44
-6.20
1.44
7.68
11.91
13.98
14.33
13.83
13.39
13.59
14.52
15.82
16.96
17.59
17.68
17.41
17.05
16.62
15.90
14.50
12.14
8.97
5.66
3.30
3.03
5.62
11.03
18.30
25.84
31.96
35.56
36.45
35.39
33.65
32.40
32.17
32.68
33.05
32.25
29.68
25.50
20.56
16.02
12.86
11.51
11.77
13.13
15.01
16.83
18.13
18.58
18.33
18.39
20.64
27.51
40.84
60.81
85.46
111.14
133.94
151.28
162.69
169.53
173.80
176.88
178.92
179.08
176.26
169.79
159.78
147.03
132.78
118.40
105.09
93.60
84.12
76.23
69.11
61.89
53.86
44.49
33.31
19.99
4.59
-11.84
-26.99
-37.72
-41.21
-36.43
-25.11
-11.38
-0.45
3.46
-1.40
-13.79
-30.38
-47.30
-61.76
-72.85
-81.31
-88.63
-95.95
-103.45
-110.47
-116.09
-119.81
-121.86
-122.93
-123.66
-124.06
-123.37
-120.44
-114.37
-105.26
-94.38
-83.94
-76.27
-72.83
-73.67
-77.48
-82.20
-86.02
-87.97
-88.13
-87.22
-86.07
-85.13
-84.28
-82.97
-80.51
-76.33
-70.54
-64.17
-59.17
-57.94
-62.29
-72.46
-87.04
-103.57
-119.70
-134.12
-146.27
-155.16
-158.45
-152.73
-135.52
-107.29
-72.08
-35.70
-2.56
26.69
54.87
85.25
117.94
148.37
169.54
176.43
170.30
159.53
156.40
171.28
207.38
258.92
313.36
356.70
378.95
377.31
356.03
323.50
287.95
254.22
222.83
191.32
156.85
118.36
77.35
37.03
0.75
-29.26
-52.20
-68.14
-77.40
-80.20
-76.81
-68.08
-55.73
-42.31
-30.78
-23.91
-23.36
-29.01
-38.72
-48.70
-54.80
-54.10
-46.21
-33.39
-19.53
-8.28
-1.58
0.93
1.08
0.79
0.95
1.23
0.82
-0.65
-2.58
-3.80
-3.41
-1.43
1.27
3.66
5.41
7.22
10.49
16.51
25.67
37.24
49.57
60.85
69.83
76.17
80.34
83.08
84.81
85.24
83.24
77.29
66.01
48.76
25.97
-0.99
-30.16
-59.57
-87.65
-113.24
-135.40
-153.09
-165.10
-170.19
-167.63
-157.64
-141.62
-121.90
-101.04
-81.08
-63.10
-47.31
-33.54
-21.85
-12.70
-6.65
-3.83
-3.54
-4.46
-5.15
-4.90
-4.06
-3.79
-5.34
-9.21
-14.82
-20.80
-25.71
-28.74
-30.11
-30.83
-32.18
-35.16
-40.07
-46.42
-53.16
-58.91
-62.34
-62.45
-58.72
-51.24
-40.79
-28.72
-16.87
-7.15
-1.08
0.82
-0.71
-3.96
-6.93
-8.02
-6.46
-2.32
3.80
10.95
17.73
22.39
23.10
18.79
9.91
-1.36
-11.91
-19.13
-22.28
-22.72
-22.96
-24.95
-28.85
-33.10
-35.46
-34.43
-29.88
-22.55
-12.90
-0.32
16.40
37.58
61.18
82.64
96.35
98.32
88.16
69.54
48.47
30.48
18.42
11.98
8.97
7.25
5.90
4.95
3.97
0.94
-7.59
-24.87
-51.74
-85.32
-119.72
-148.29
-166.40
-173.30
-172.10
-167.76
-164.39
-163.20
-162.12
-157.30
-145.47
-125.81
-100.53
-73.72
-49.38
-29.78
-14.82
-2.73
8.64
20.64
33.32
45.83
57.10
66.48
74.04
80.22
85.56
90.33
94.58
98.29
101.64
105.25
110.21
117.71
128.49
142.30
157.72
172.60
184.87
193.25
197.48
198.01
195.29
189.32
179.60
165.60
147.40
125.98
102.92
79.59
56.41
32.66
6.94
-21.64
-52.53
-83.36
-110.58
-130.76
-141.97
-144.53
-140.75
-133.85
-126.69
-120.87
-116.72
-113.88
-112.03
-111.20
-111.76
-113.95
-117.76
-122.88
-129.12
-136.71
-146.29
-158.43
-172.92
-188.25
-201.77
-210.57
-212.70
-208.15
-199.03
-188.72
-180.48
-176.18
-175.56
-176.62
-176.61
-173.17
-165.01
-152.06
-135.00
-114.86
-92.62
-69.23
-45.61
-22.84
-2.21
14.78
26.49
31.60
29.40
20.19
5.40
-12.52
-30.26
-43.72
-48.27
-39.41
-14.29
26.41
77.22
128.21
167.75
186.57
181.42
156.33
120.66
85.06
57.35
40.58
33.78
34.27
39.82
49.31
61.82
75.54
87.31
93.63
92.34
83.76
70.56
56.71
45.69
39.32
37.46
38.55
40.56
41.83
41.42
39.21
35.59
31.22
26.72
22.41
18.20
13.63
8.19
1.62
-5.79
-13.23
-19.84
-25.12
-29.24
-32.94
-37.10
-42.23
-48.18
-54.17
-59.22
-62.55
-63.88
-63.51
-62.10
-60.35
-58.47
-55.93
-51.50
-43.85
-32.32
-17.56
-1.48
13.54
25.62
34.18
40.02
44.72
49.69
55.48
61.59
66.70
69.30
68.18
62.74
53.09
40.00
24.72
8.81
-6.23
-19.14
-28.95
-35.05
-37.15
-35.22
-29.66
-21.09
-10.30
1.93
14.92
27.98
40.08
49.79
55.35
55.26
49.17
38.61
27.20
19.92
21.60
35.05
59.78
92.07
126.10
156.16
178.36
191.33
195.80
193.47
186.34
176.53
166.29
157.88
152.68
150.34
148.38
143.04
130.89
110.56
83.32
52.39
21.45
-6.58
-29.91
-47.61
-59.17
-64.70
-65.36
-63.74
-63.40
-67.64
-78.14
-94.34
-113.86
-133.67
-151.21
-165.05
-174.71
-180.16
-181.37
-178.35
-171.29
-160.83
-148.03
-134.22
-120.77
-108.68
-98.40
-89.56
-81.05
-71.37
-59.14
-43.67
-25.31
-5.55
13.58
30.14
43.00
51.98
57.72
61.28
63.72
66.01
69.05
73.57
79.79
87.02
93.62
97.33
96.12
89.05
76.74
61.14
44.80
29.92
17.82
8.85
2.61
-1.59
-4.66
-7.52
-11.04
-15.93
-22.47
-30.43
-38.93
-46.70
-52.33
-54.71
-53.53
-49.65
-44.82
-41.11
-39.85
-40.96
-42.88
-43.38
-40.67
-34.35
-25.44
-15.74
-6.71
1.23
8.77
17.10
27.14
38.92
51.51
63.39
73.12
79.86
83.67
85.31
85.80
85.89
85.74
84.92
82.79
79.06
74.05
68.64
63.85
60.12
57.05
53.36
47.43
38.03
24.97
9.16
-7.63
-23.46
-36.94
-47.50
-55.36
-61.10
-65.18
-67.76
-68.73
-67.94
-65.45
-61.53
-56.63
-51.15
-45.32
-39.29
-33.12
-26.99
-21.24
-16.28
-12.47
-9.95
-8.53
-7.73
-6.88
-5.42
-3.03
0.22
3.85
7.17
9.52
10.37
9.50
7.03
3.37
-0.91
-5.17
-8.89
-11.88
-14.23
-16.28
-18.45
-20.98
-23.84
-26.65
-28.89
-30.06
-29.96
-28.69
-26.68
-24.45
-22.46
-20.88
-19.63
-18.36
-16.69
-14.39
-11.55
-8.69
-6.52
-5.66
-6.30
-7.98
-9.89
-11.23
-11.75
-11.78
-12.02
-13.07
-15.10
-17.74
-20.34
-22.24
-22.98
-22.15
-19.43
-14.68
-8.16
-0.70
6.40
12.02
15.54
17.18
17.95
19.23
22.34
28.12
36.62
46.94
57.52
66.57
72.74
75.69
76.06
75.01
73.62
72.31
70.95
69.35
67.79
67.16
68.44
71.98
76.90
81.03
81.38
75.27
61.26
39.95
14.07
-12.18
-34.50
-49.83
-57.14
-57.43
-52.73
-45.01
-35.69
-25.72
-16.25
-8.88
-5.16
-5.63
-9.10
-12.89
-13.93
-10.40
-2.66
6.88
14.96
18.98
18.03
12.99
5.83
-1.38
-7.11
-10.52
-11.30
-9.53
-5.60
-0.47
4.31
6.77
5.10
-1.67
-13.08
-27.23
-41.29
-52.36
-58.53
-59.33
-55.80
-49.79
-43.20
-37.24
-32.16
-27.43
-22.15
-15.53
-7.28
2.46
13.15
24.22
35.31
46.32
57.38
68.56
79.66
90.00
98.50
103.74
104.44
99.89
90.38
77.41
63.45
51.33
43.45
41.11
44.03
50.57
58.08
63.79
65.35
61.43
51.99
38.29
22.57
7.47
-4.71
-12.65
-16.44
-17.40
-17.52
-18.73
-22.22
-28.18
-35.98
-44.64
-53.30
-61.53
-69.17
-76.13
-82.11
-86.70
-89.78
-91.98
-94.67
-99.42
-107.00
-116.53
-125.46
-130.46
-129.03
-120.92
-108.59
-96.29
-88.30
-86.94
-91.47
-98.28
-102.16
-98.24
-83.61
-58.42
-26.10
7.51
35.85
53.78
59.55
55.81
48.91
46.95
56.79
81.37
118.23
160.09
197.12
219.90
222.20
202.75
165.90
120.49
77.18
44.81
26.98
20.63
17.60
9.14
-9.71
-37.15
-65.79
-86.82
-94.98
-91.43
-82.66
-76.32
-76.79
-82.94
-89.34
-89.77
-80.76
-62.92
-40.05
-16.50
4.93
23.80
41.13
57.80
73.18
84.96
90.07
86.12
72.86
52.66
29.92
9.63
-4.30
-10.60
-10.98
-9.01
-8.73
-12.69
-21.04
-31.79
-42.06
-49.75
-54.32
-56.50
-57.17
-56.55
-54.09
-49.23
-42.11
-33.45
-24.04
-13.79
-1.67
13.33
30.60
47.03
57.72
57.98
45.90
23.33
-4.81
-32.91
-56.93
-75.16
-87.42
-93.47
-92.01
-81.00
-58.99
-26.99
10.74
47.14
74.69
88.12
86.51
73.70
56.79
43.37
38.44
42.38
50.84
56.73
53.28
37.11
9.24
-25.73
-61.96
-94.30
-119.09
-133.88
-136.75
-126.82
-105.11
-75.86
-46.32
-24.69
-16.85
-23.46
-39.53
-56.49
-65.97
-63.13
-47.98
-24.52
1.57
24.98
42.06
51.20
52.58
47.87
39.75
31.27
25.20
23.16
25.20
30.13
36.09
41.42
45.09
46.91
47.29
46.78
45.93
45.02
44.14
43.23
42.20
41.00
39.73
38.79
38.80
40.51
44.47
50.73
58.57
66.68
73.60
78.43
81.40
83.95
88.11
95.53
106.55
119.99
133.73
145.87
155.49
162.74
167.94
170.69
169.43
162.09
147.24
125.13
97.89
68.67
40.47
15.13
-6.96
-26.54
-44.68
-62.21
-79.46
-96.34
-112.63
-128.21
-143.03
-157.05
-169.93
-180.87
-188.70
-192.41
-191.62
-187.03
-180.32
-173.56
-168.38
-165.37
-163.88
-162.35
-159.05
-152.70
-143.03
-130.93
-118.41
-107.97
-101.67
-100.11
-102.05
-104.59
-104.25
-98.30
-85.75
-67.64
-46.35
-24.54
-4.08
14.44
31.38
47.30
62.19
75.36
85.82
93.02
97.32
99.81
101.59
103.07
103.68
102.27
97.97
90.96
82.49
74.35
67.92
63.54
60.55
57.80
54.39
50.10
45.27
40.30
35.03
28.45
19.04
5.44
-12.53
-33.28
-53.57
-69.40
-77.31
-75.16
-62.64
-41.04
-12.96
18.03
47.69
71.79
87.00
91.91
87.57
77.02
64.07
51.72
41.22
32.15
23.39
14.32
5.46
-1.81
-6.20
-7.40
-6.53
-5.61
-6.66
-10.75
-17.48
-25.45
-32.97
-38.96
-43.15
-45.87
-47.51
-48.09
-47.17
-44.26
-39.26
-32.70
-25.67
-19.33
-14.60
-11.81
-10.77
-10.91
-11.52
-12.03
-12.13
-11.88
-11.66
-12.05
-13.57
-16.60
-21.25
-27.44
-35.05
-43.96
-53.97
-64.54
-74.57
-82.50
-86.57
-85.52
-79.05
-67.94
-53.70
-38.01
-22.08
-6.69
7.65
20.35
30.57
37.62
41.30
42.26
41.84
41.59
42.54
44.87
47.90
50.64
52.27
52.49
51.40
49.23
46.08
41.77
36.00
28.50
19.33
8.99
-1.35
-10.08
-15.47
-16.38
-12.83
-6.21
1.15
6.77
8.91
6.92
1.23
-7.23
-17.40
-28.38
-39.28
-49.14
-57.05
-62.43
-65.40
-66.71
-67.40
-68.23
-69.24
-69.89
-69.55
-68.03
-65.74
-63.42
-61.50
-59.76
-57.38
-53.56
-48.07
-41.61
-35.42
-30.50
-27.00
-24.08
-20.50
-15.45
-8.91
-1.52
6.23
14.52
23.96
34.72
45.65
54.12
56.97
52.06
39.44
21.57
2.35
-14.30
-25.56
-29.82
-26.36
-14.99
3.81
28.22
54.95
79.75
99.08
111.70
119.40
126.17
136.26
152.17
173.50
197.39
219.85
237.47
248.40
252.66
251.62
247.25
241.24
234.19
225.15
211.71
190.97
161.11
122.75
79.28
36.05
-1.38
-29.04
-45.43
-51.34
-48.97
-41.09
-30.81
-21.49
-16.55
-18.80
-29.45
-47.53
-70.20
-93.83
-115.29
-132.77
-145.72
-154.15
-158.02
-157.02
-150.74
-139.18
-123.16
-104.18
-84.20
-65.22
-49.06
-37.24
-30.75
-29.75
-33.29
-39.40
-45.54
-49.49
-50.32
-49.00
-48.36
-51.72
-61.10
-75.71
-91.51
-102.65
-104.00
-93.54
-73.39
-48.81
-25.80
-8.36
2.85
10.12
16.91
25.64
36.55
47.82
56.79
61.23
60.06
53.56
42.95
29.83
15.63
1.10
-13.54
-28.33
-43.00
-56.63
-67.85
-75.53
-79.85
-82.57
-86.43
-93.57
-103.88
-114.45
-120.64
-118.16
-105.09
-82.60
-54.27
-24.35
3.81
28.39
48.90
65.44
78.12
86.95
92.29
95.30
97.78
101.77
108.57
118.16
129.04
138.55
143.90
143.04
135.35
121.64
103.71
83.65
63.05
42.74
22.61
2.01
-19.64
-42.15
-64.14
-83.00
-95.56
-98.99
-91.62
-73.41
-45.84
-11.57
25.89
62.59
94.59
118.68
133.19
138.56
137.26
132.97
129.38
128.98
132.52
139.04
145.93
149.33
144.78
128.46
98.82
57.69
10.56
-34.75
-70.56
-91.72
-96.89
-88.33
-70.39
-47.81
-24.62
-3.92
11.87
20.82
21.68
14.47
0.78
-16.42
-33.71
-48.24
-58.46
-64.14
-65.80
-64.00
-58.86
-50.28
-38.41
-23.99
-8.31
7.11
20.89
32.11
40.19
44.77
45.70
43.27
38.26
31.89
25.30
19.12
13.54
8.61
4.94
3.76
6.52
13.90
25.04
37.50
48.09
54.13
54.56
50.09
42.66
34.30
26.15
18.11
9.14
-1.98
-15.94
-32.49
-50.43
-67.96
-83.09
-93.94
-98.99
-97.23
-88.57
-74.05
-55.92
-37.08
-20.37
-7.56
0.96
5.89
8.29
8.73
7.18
3.35
-2.56
-9.48
-15.70
-19.69
-20.90
-20.01
-18.40
-17.29
-17.00
-16.89
-15.82
-13.01
-8.51
-3.24
1.53
4.84
6.46
6.86
6.86
7.14
7.89
8.77
9.09
8.19
5.74
1.96
-2.42
-6.39
-8.96
-9.41
-7.58
-3.78
1.29
6.79
12.02
16.64
20.62
24.19
27.48
30.45
32.76
34.04
34.11
33.19
31.94
31.16
31.54
33.42
36.68
40.93
45.59
49.99
53.24
54.23
51.74
44.89
33.61
19.10
3.72
-9.58
-18.23
-20.84
-17.70
-10.60
-2.09
5.23
9.40
9.40
5.12
-2.80
-13.24
-24.82
-36.27
-46.67
-55.72
-63.79
-71.78
-80.88
-92.15
-106.17
-122.73
-140.66
-157.92
-171.94
-180.20
-180.84
-173.30
-158.41
-138.15
-115.12
-91.75
-69.81
-50.14
-32.72
-16.99
-2.28
11.89
25.56
38.48
50.29
60.79
70.11
78.55
86.46
93.99
101.07
107.41
112.69
116.63
119.08
120.00
119.57
118.05
115.69
112.66
108.98
104.54
99.22
93.01
86.01
78.38
70.17
61.22
51.21
39.80
26.89
12.77
-1.83
-15.84
-28.17
-37.86
-44.31
-47.33
-47.02
-43.67
-37.65
-29.26
-18.74
-6.48
6.93
20.51
33.03
43.14
49.73
52.19
50.50
45.33
37.75
29.06
20.33
12.19
4.65
-2.83
-11.07
-20.81
-32.33
-45.33
-59.07
-72.70
-85.61
-97.50
-108.29
-117.89
-125.98
-132.22
-136.38
-138.60
-139.29
-138.90
-137.59
-135.21
-131.45
-126.36
-120.48
-114.65
-109.33
-103.95
-96.70
-85.19
-67.50
-43.32
-14.40
15.95
44.13
67.45
84.96
97.23
105.65
111.49
115.43
117.72
118.59
118.58
118.52
119.11
120.53
122.24
123.22
122.49
119.55
114.74
109.11
104.05
100.82
99.92
100.78
101.63
99.97
93.29
80.05
60.27
35.70
9.16
-16.37
-38.74
-57.15
-72.07
-84.63
-95.92
-106.40
-115.85
-123.64
-129.22
-132.54
-134.12
-134.79
-135.14
-135.13
-134.01
-130.76
-124.58
-115.39
-103.73
-90.37
-75.87
-60.24
-43.11
-24.04
-2.89
20.12
44.54
69.80
95.13
119.31
140.51
156.47
165.35
166.48
160.92
151.20
140.28
130.48
122.51
115.49
107.49
96.60
81.76
63.13
41.80
19.20
-3.58
-26.09
-48.48
-71.10
-94.01
-116.72
-138.20
-157.19
-172.66
-184.07
-191.54
-195.69
-197.52
-198.08
-198.31
-198.79
-199.53
-199.83
-198.27
-192.99
-182.16
-164.44
-139.41
-107.88
-71.90
-34.59
0.42
29.74
51.02
63.68
69.00
69.76
69.31
70.46
74.68
81.89
90.84
99.97
108.01
114.41
119.18
122.49
124.33
124.44
122.52
118.49
112.81
106.37
100.16
94.92
90.75
87.15
83.25
78.20
71.56
63.37
53.96
43.73
32.85
21.35
9.29
-2.88
-14.27
-23.74
-30.29
-33.49
-33.58
-31.37
-27.86
-23.91
-20.05
-16.47
-13.25
-10.48
-8.36
-7.10
-6.79
-7.29
-8.24
-9.22
-9.90
-10.18
-10.15
-10.00
-9.87
-9.84
-9.91
-10.02
-10.12
-10.13
-10.06
-9.89
-9.74
-9.80
-10.31
-11.44
-13.21
-15.45
-17.94
-20.46
-22.93
-25.41
-27.97
-30.49
-32.69
-34.08
-34.20
-32.67
-29.30
-24.07
-17.11
-8.76
0.38
9.51
17.68
24.11
28.33
30.32
30.45
29.28
27.34
25.02
22.58
20.23
18.15
16.47
15.18
14.17
13.14
11.84
10.08
7.80
5.05
1.98
-1.20
-4.31
-7.24
-9.97
-12.58
-15.22
-18.02
-21.07
-24.33
-27.68
-30.84
-33.48
-35.21
-35.64
-34.54
-31.84
-27.75
-22.69
-17.17
-11.71
-6.63
-2.12
1.77
5.04
7.72
9.91
11.70
13.20
14.42
15.34
15.85
15.83
15.29
14.38
13.33
12.36
11.59
10.94
10.14
8.86
6.80
3.74
-0.37
-5.34
-10.84
-16.37
-21.38
-25.40
-28.15
-29.72
-30.48
-30.97
-31.65
-32.68
-33.85
-34.65
-34.45
-32.83
-29.69
-25.26
-20.00
-14.38
-8.75
-3.31
1.86
6.63
10.80
14.07
16.21
17.25
17.46
17.28
17.15
17.32
17.78
18.36
18.89
19.25
19.41
19.35
19.04
18.46
17.64
16.66
15.61
14.51
13.26
11.65
9.52
6.90
4.02
1.22
-1.20
-3.10
-4.53
-5.71
-6.93
-8.47
-10.49
-13.00
-15.76
-18.35
-20.26
-21.06
-20.47
-18.46
-15.22
-11.09
-6.44
-1.67
2.88
6.97
10.42
13.07
14.87
15.75
15.72
14.91
13.58
12.11
10.88
10.13
9.93
10.15
10.54
10.88
11.06
11.10
11.07
11.04
11.09
11.17
11.22
11.09
10.66
9.79
8.47
6.81
5.00
3.24
1.70
0.41
-0.72
-1.79
-2.89
-4.01
-5.17
-6.36
-7.62
-8.93
-10.17
-10.99
-10.91
-9.44
-6.37
-1.83
3.61
9.24
14.40
18.67
21.98
24.40
26.05
26.87
26.75
25.54
23.24
20.10
16.55
13.10
10.16
7.94
6.45
5.59
5.16
5.02
5.06
5.21
5.45
5.71
5.93
6.02
5.87
5.37
4.46
3.16
1.61
0.02
-1.44
-2.65
-3.65
-4.55
-5.50
-6.54
-7.60
-8.53
-9.19
-9.49
-9.41
-8.96
-8.07
-6.65
-4.54
-1.64
2.06
6.36
10.90
15.18
18.71
21.11
22.23
22.10
20.91
18.97
16.56
14.00
11.52
9.26
7.24
5.39
3.64
1.94
0.32
-1.11
-2.33
-3.37
-4.38
-5.50
-6.82
-8.26
-9.66
-10.84
-11.69
-12.21
-12.46
-12.51
-12.43
-12.29
-12.15
-12.09
-12.21
-12.61
-13.35
-14.49
-16.03
-17.84
-19.67
-21.15
-21.85
-21.36
-19.51
-16.35
-12.20
-7.50
-2.74
1.71
5.62
8.83
11.32
13.09
14.19
14.76
15.00
15.11
15.26
15.50
15.80
16.03
16.08
15.85
15.32
14.54
13.56
12.47
11.34
10.20
9.01
7.70
6.18
4.41
2.40
0.30
-1.73
-3.50
-4.89
-5.94
-6.82
-7.77
-8.96
-10.37
-11.71
-12.48
-12.16
-10.44
-7.31
-3.12
1.63
6.46
10.99
15.02
18.34
20.68
21.78
21.50
19.96
17.56
14.90
12.53
10.78
9.70
9.10
8.74
8.43
8.07
7.64
7.09
6.45
5.69
4.86
4.01
3.26
2.67
2.18
1.64
0.87
-0.27
-1.81
-3.66
-5.68
-7.77
-9.95
-12.29
-14.96
-17.95
-21.08
-24.02
-26.32
-27.62
-27.77
-26.81
-24.90
-22.22
-18.92
-15.12
-10.99
-6.73
-2.67
0.85
3.57
5.37
6.27
6.46
6.20
5.77
5.40
5.21
5.24
5.41
5.58
5.63
5.46
5.04
4.41
3.63
2.74
1.71
0.47
-1.10
-3.08
-5.42
-7.98
-10.46
-12.53
-14.01
-14.85
-15.24
-15.56
-16.13
-17.15
-18.58
-20.11
-21.27
-21.62
-20.79
-18.69
-15.46
-11.47
-7.16
-2.95
0.79
3.84
6.14
7.75
8.85
9.67
10.44
11.31
12.32
13.38
14.32
14.91
15.00
14.56
13.71
12.65
11.66
10.86
10.25
9.68
8.94
7.81
6.22
4.28
2.25
0.39
-1.10
-2.23
-3.14
-4.07
-5.22
-6.65
-8.31
-10.07
-11.69
-12.94
-13.53
-13.23
-11.92
-9.72
-6.95
-4.04
-1.43
0.61
2.01
2.81
3.13
3.10
2.89
2.74
2.87
3.49
4.70
6.39
8.33
10.27
11.99
13.35
14.28
14.75
14.78
14.43
13.73
12.72
11.41
9.77
7.80
5.57
3.27
1.11
-0.73
-2.23
-3.59
-5.11
-7.06
-9.56
-12.43
-15.24
-17.53
-18.90
-19.17
-18.37
-16.67
-14.27
-11.29
-7.86
-4.18
-0.54
2.65
5.02
6.35
6.70
6.31
5.58
4.83
4.27
3.89
3.63
3.37
3.04
2.55
1.87
0.97
-0.16
-1.46
-2.90
-4.38
-5.87
-7.34
-8.74
-10.02
-11.17
-12.25
-13.35
-14.57
-15.94
-17.35
-18.65
-19.63
-20.20
-20.34
-20.06
-19.35
-18.16
-16.51
-14.42
-12.06
-9.64
-7.42
-5.55
-4.12
-3.02
-2.04
-0.92
0.50
2.15
3.76
4.97
5.48
5.33
4.85
4.54
4.78
5.68
6.94
8.12
8.85
8.98
8.61
8.00
7.36
6.78
6.21
5.50
4.52
3.22
1.65
-0.05
-1.76
-3.39
-4.99
-6.57
-8.19
-9.75
-11.07
-11.90
-12.02
-11.43
-10.26
-8.72
-7.00
-5.18
-3.33
-1.51
0.10
1.33
2.10
2.54
2.96
3.79
5.30
7.51
10.13
12.71
14.84
16.24
16.89
16.90
16.44
15.64
14.58
13.33
11.87
10.28
8.66
7.11
5.71
4.37
2.97
1.33
-0.69
-3.08
-5.71
-8.37
-10.78
-12.77
-14.13
-14.76
-14.58
-13.57
-11.76
-9.25
-6.15
-2.65
1.03
4.60
7.76
10.25
11.92
12.74
12.79
12.24
11.31
10.23
9.29
8.76
8.82
9.53
10.75
12.18
13.53
14.58
15.25
15.54
15.52
15.21
14.58
13.61
12.28
10.62
8.69
6.53
4.20
1.73
-0.84
-3.45
-6.04
-8.55
-10.91
-13.00
-14.67
-15.75
-16.05
-15.51
-14.11
-11.96
-9.22
-6.12
-2.86
0.34
3.33
5.92
8.00
9.50
10.45
10.96
11.23
11.43
11.67
12.02
12.39
12.67
12.76
12.60
12.23
11.68
11.02
10.25
9.34
8.22
6.86
5.29
3.64
2.05
0.68
-0.47
-1.52
-2.77
-4.53
-6.98
-10.06
-13.46
-16.64
-19.01
-20.13
-19.82
-18.17
-15.50
-12.21
-8.68
-5.16
-1.81
1.28
3.99
6.23
7.89
8.93
9.43
9.55
9.45
9.22
8.88
8.37
7.66
6.83
6.07
5.63
5.65
6.12
6.86
7.63
8.29
8.85
9.48
10.33
11.50
12.91
14.37
15.64
16.50
16.83
16.61
15.93
15.00
14.14
13.66
13.81
14.65
16.05
17.76
19.56
21.23
22.60
23.52
23.84
23.43
22.23
20.29
17.73
14.71
11.39
7.98
4.65
1.52
-1.39
-4.23
-7.26
-10.71
-14.61
-18.73
-22.61
-25.68
-27.50
-27.92
-27.10
-25.46
-23.56
-21.95
-20.99
-20.82
-21.30
-22.10
-22.86
-23.28
-23.25
-22.76
-21.87
-20.50
-18.43
-15.31
-10.83
-4.89
2.27
10.11
17.80
24.36
28.77
30.05
27.56
21.43
13.06
5.13
0.91
3.05
12.22
26.64
42.50
55.47
62.47
62.63
57.36
49.28
40.97
33.99
28.69
24.49
20.40
15.26
8.00
-2.26
-15.92
-32.45
-50.38
-67.45
-81.23
-89.95
-93.05
-91.36
-86.77
-81.63
-77.99
-77.07
-79.14
-83.59
-89.39
-95.43
-100.86
-105.15
-108.11
-109.70
-110.02
-109.14
-107.18
-104.29
-100.61
-96.31
-91.53
-86.33
-80.64
-74.32
-67.03
-58.36
-48.00
-35.86
-22.24
-7.80
6.68
20.50
33.24
44.80
55.15
64.15
71.42
76.48
78.91
78.70
76.28
72.41
67.81
62.93
57.81
52.19
45.79
38.54
30.77
23.14
16.40
11.20
7.86
6.33
6.32
7.45
9.42
11.99
14.98
18.18
21.26
23.76
25.28
25.57
24.75
23.26
21.67
20.47
19.86
19.70
19.61
19.16
18.08
16.32
14.05
11.53
9.02
6.67
4.51
2.50
0.55
-1.38
-3.28
-5.12
-6.83
-8.44
-10.02
-11.72
-13.63
-15.69
-17.70
-19.27
-20.00
-19.60
-17.94
-15.08
-11.26
-6.84
-2.21
2.26
6.28
9.68
12.41
14.53
16.11
17.23
17.96
18.35
18.44
18.32
18.05
17.67
17.19
16.58
15.88
15.12
14.37
13.68
13.04
12.37
11.58
10.59
9.36
7.91
6.32
4.64
2.87
0.98
-1.13
-3.56
-6.38
-9.55
-12.86
-15.95
-18.39
-19.71
-19.59
-17.90
-14.79
-10.59
-5.76
-0.72
4.15
8.62
12.50
15.61
17.86
19.20
19.75
19.77
19.61
19.56
19.73
20.04
20.25
20.15
19.62
18.70
17.52
16.18
14.76
13.30
11.81
10.29
8.73
7.10
5.44
3.79
2.25
0.98
0.08
-0.50
-0.97
-1.64
-2.87
-4.78
-7.27
-9.92
-12.16
-13.44
-13.38
-11.87
-9.10
-5.47
-1.45
2.53
6.17
9.34
12.06
14.39
16.34
17.88
18.93
19.45
19.55
19.44
19.31
19.22
19.08
18.72
18.01
16.98
15.79
14.65
13.66
12.82
12.00
11.10
10.10
9.07
8.06
7.04
5.93
4.58
2.96
1.14
-0.74
-2.59
-4.46
-6.55
-9.04
-11.96
-15.02
-17.69
-19.33
-19.49
-18.01
-15.14
-11.35
-7.19
-3.11
0.64
3.97
6.86
9.29
11.15
12.37
12.89
12.80
12.28
11.57
10.92
10.40
10.00
9.62
9.16
8.60
7.98
7.37
6.81
6.27
5.72
5.10
4.39
3.57
2.60
1.46
0.16
-1.28
-2.78
-4.29
-5.81
-7.42
-9.21
-11.24
-13.53
-15.90
-18.12
-19.82
-20.60
-20.16
-18.39
-15.41
-11.58
-7.42
-3.42
0.02
2.69
4.58
5.80
6.52
6.94
7.19
7.42
7.72
8.15
8.70
9.33
9.91
10.30
10.38
10.05
9.36
8.45
7.53
6.79
6.28
5.93
5.54
4.95
4.06
2.94
1.80
0.78
-0.04
-0.81
-1.75
-3.15
-5.16
-7.79
-10.86
-14.09
-17.08
-19.45
-20.82
-20.92
-19.69
-17.26
-14.02
-10.47
-7.11
-4.29
-2.13
-0.59
0.47
1.18
1.56
1.56
1.12
0.24
-0.90
-2.05
-2.97
-3.59
-4.06
-4.67
-5.71
-7.26
-9.25
-11.47
-13.80
-16.27
-19.07
-22.35
-26.11
-30.14
-34.05
-37.42
-39.91
-41.28
-41.34
-39.98
-37.21
-33.18
-28.22
-22.73
-16.98
-11.05
-4.82
1.86
9.06
16.53
23.84
30.46
35.96
40.12
42.96
44.60
45.20
44.89
43.73
41.77
39.14
36.07
32.83
29.75
27.06
24.93
23.32
22.07
20.92
19.65
18.13
16.36
14.48
12.59
10.78
9.05
7.33
5.60
3.86
2.23
0.82
-0.25
-0.98
-1.43
-1.73
-2.05
-2.55
-3.36
-4.57
-6.18
-8.02
-9.82
-11.24
-11.94
-11.72
-10.53
-8.54
-6.06
-3.41
-0.86
1.44
3.48
5.26
6.77
7.92
8.65
8.89
8.73
8.31
7.86
7.56
7.54
7.75
8.05
8.21
8.08
7.62
6.92
6.17
5.51
4.97
4.44
3.80
2.95
1.94
0.92
0.01
-0.74
-1.45
-2.31
-3.51
-5.09
-6.99
-9.01
-10.91
-12.46
-13.41
-13.62
-12.98
-11.45
-9.12
-6.16
-2.89
0.34
3.18
5.34
6.69
7.30
7.38
7.22
7.07
7.05
7.11
7.15
7.08
6.90
6.71
6.59
6.54
6.44
6.13
5.48
4.50
3.36
2.25
1.29
0.46
-0.39
-1.41
-2.67
-4.11
-5.61
-7.04
-8.36
-9.71
-11.25
-13.08
-15.09
-16.91
-17.95
-17.70
-15.91
-12.74
-8.74
-4.57
-0.86
2.04
4.06
5.29
5.88
5.97
5.72
5.27
4.84
4.62
4.71
5.09
5.66
6.27
6.74
6.96
6.89
6.55
6.04
5.45
4.85
4.18
3.33
2.17
0.68
-1.01
-2.67
-4.03
-4.99
-5.57
-5.98
-6.44
-7.17
-8.29
-9.86
-11.84
-13.99
-15.97
-17.25
-17.40
-16.19
-13.72
-10.36
-6.64
-3.03
0.19
2.88
5.00
6.49
7.29
7.36
6.82
5.89
4.95
4.31
4.18
4.56
5.32
6.21
6.94
7.33
7.29
6.87
6.24
5.56
4.98
4.51
4.05
3.45
2.56
1.35
-0.08
-1.53
-2.77
-3.68
-4.24
-4.61
-4.97
-5.50
-6.26
-7.18
-8.08
-8.81
-9.24
-9.34
-9.09
-8.40
-7.13
-5.19
-2.60
0.37
3.35
5.97
8.01
9.48
10.49
11.18
11.56
11.57
11.15
10.42
9.60
9.00
8.80
8.97
9.33
9.63
9.71
9.57
9.31
8.98
8.56
7.95
7.04
5.88
4.64
3.57
2.82
2.34
1.93
1.30
0.28
-1.20
-3.07
-5.17
-7.37
-9.51
-11.36
-12.63
-13.04
-12.43
-10.83
-8.45
-5.63
-2.69
0.16
2.83
5.26
7.38
9.09
10.23
10.72
10.54
9.79
8.70
7.57
6.68
6.16
6.01
6.05
6.03
5.74
5.07
4.11
3.01
1.98
1.10
0.36
-0.32
-1.02
-1.74
-2.43
-3.02
-3.52
-4.02
-4.70
-5.64
-6.87
-8.28
-9.71
-11.10
-12.43
-13.72
-14.89
-15.71
-15.87
-15.12
-13.37
-10.79
-7.69
-4.43
-1.29
1.55
4.00
5.96
7.35
8.06
8.09
7.55
6.69
5.79
5.12
4.78
4.74
4.86
4.95
4.90
4.70
4.39
4.05
3.68
3.23
2.64
1.89
1.05
0.17
-0.68
-1.55
-2.51
-3.67
-5.04
-6.54
-8.03
-9.40
-10.63
-11.83
-13.12
-14.61
-16.30
-18.04
-19.61
-20.74
-21.21
-20.93
-19.92
-18.34
-16.39
-14.26
-12.09
-9.92
-7.78
-5.73
-3.90
-2.44
-1.46
-1.00
-0.91
-1.02
-1.12
-1.15
-1.08
-0.96
-0.78
-0.52
-0.14
0.37
0.94
1.49
1.97
2.41
2.94
3.72
4.87
6.34
7.98
9.59
11.03
12.22
13.16
13.87
14.32
14.43
14.09
13.26
11.95
10.31
8.61
7.18
6.37
6.51
7.78
10.16
13.29
16.59
19.33
20.88
20.86
19.32
16.57
13.13
9.50
6.01
2.84
0.09
-2.17
-3.82
-4.80
-5.15
-5.07
-4.85
-4.78
-5.05
-5.65
-6.45
-7.29
-8.03
-8.67
-9.25
-9.82
-10.34
-10.68
-10.66
-10.18
-9.19
-7.82
-6.28
-4.76
-3.42
-2.35
-1.60
-1.20
-1.17
-1.41
-1.75
-1.89
-1.51
-0.43
1.33
3.52
5.76
7.75
9.29
10.41
11.21
11.75
12.09
12.15
11.88
11.25
10.32
9.18
7.94
6.67
5.40
4.14
2.89
1.67
0.53
-0.45
-1.22
-1.76
-2.14
-2.51
-3.05
-3.88
-5.00
-6.24
-7.35
-8.13
-8.49
-8.50
-8.34
-8.22
-8.32
-8.71
-9.39
-10.28
-11.18
-11.77
-11.70
-10.67
-8.55
-5.46
-1.75
2.09
5.60
8.47
10.57
11.90
12.57
12.69
12.43
11.90
11.23
10.53
9.86
9.29
8.83
8.45
8.05
7.52
6.75
5.75
4.66
3.75
3.19
2.99
2.95
2.76
2.20
1.27
0.14
-0.94
-1.76
-2.32
-2.72
-3.15
-3.79
-4.76
-6.12
-7.87
-9.87
-11.87
-13.47
-14.31
-14.16
-13.02
-11.15
-8.94
-6.71
-4.63
-2.74
-1.02
0.51
1.78
2.66
3.12
3.23
3.14
3.05
3.06
3.20
3.35
3.39
3.19
2.73
2.06
1.30
0.58
-0.01
-0.45
-0.81
-1.18
-1.74
-2.62
-3.86
-5.38
-6.96
-8.38
-9.47
-10.23
-10.86
-11.59
-12.55
-13.66
-14.63
-15.05
-14.64
-13.32
-11.30
-8.89
-6.37
-3.89
-1.48
0.79
2.83
4.43
5.41
5.77
5.71
5.53
5.50
5.73
6.06
6.27
6.19
5.82
5.29
4.78
4.43
4.23
4.09
3.92
3.72
3.51
3.39
3.36
3.38
3.29
2.91
2.12
0.92
-0.66
-2.51
-4.50
-6.52
-8.46
-10.16
-11.45
-12.12
-12.07
-11.27
-9.87
-8.10
-6.15
-4.19
-2.25
-0.35
1.49
3.15
4.45
5.23
5.42
5.13
4.59
4.09
3.84
3.91
4.21
4.57
4.78
4.72
4.36
3.75
2.99
2.20
1.47
0.84
0.33
-0.12
-0.52
-0.93
-1.42
-2.04
-2.87
-3.89
-5.05
-6.25
-7.40
-8.50
-9.67
-11.00
-12.55
-14.15
-15.47
-16.07
-15.64
-14.11
-11.70
-8.81
-5.87
-3.14
-0.68
1.58
3.69
5.62
7.26
8.44
9.08
9.21
8.97
8.56
8.14
7.83
7.69
7.72
7.88
8.10
8.33
8.48
8.49
8.29
7.85
7.14
6.19
5.06
3.81
2.54
1.32
0.29
-0.52
-1.07
-1.43
-1.73
-2.12
-2.75
-3.69
-4.97
-6.55
-8.33
-10.16
-11.78
-12.84
-12.98
-11.98
-9.86
-6.94
-3.76
-0.85
1.46
3.13
4.37
5.49
6.65
7.83
8.88
9.63
10.02
10.10
9.99
9.77
9.46
9.01
8.42
7.74
7.07
6.48
5.99
5.57
5.15
4.65
4.06
3.35
2.52
1.59
0.61
-0.36
-1.27
-2.10
-2.91
-3.78
-4.79
-5.98
-7.28
-8.64
-10.01
-11.35
-12.60
-13.65
-14.29
-14.32
-13.66
-12.34
-10.58
-8.60
-6.57
-4.52
-2.35
-0.02
2.37
4.58
6.32
7.41
7.88
7.95
7.92
8.05
8.46
9.10
9.83
10.51
11.01
11.24
11.15
10.68
9.87
8.76
7.52
6.28
5.16
4.13
3.06
1.86
0.49
-0.92
-2.15
-3.04
-3.55
-3.84
-4.21
-4.88
-5.92
-7.17
-8.28
-8.91
-8.80
-7.87
-6.24
-4.13
-1.84
0.35
2.19
3.52
4.32
4.70
4.86
4.98
5.19
5.44
5.63
5.62
5.37
4.94
4.40
3.87
3.32
2.65
1.76
0.65
-0.60
-1.81
-2.87
-3.74
-4.49
-5.26
-6.11
-7.00
-7.82
-8.42
-8.72
-8.78
-8.70
-8.61
-8.64
-8.84
-9.22
-9.74
-10.30
-10.69
-10.68
-10.03
-8.57
-6.32
-3.45
-0.25
2.94
5.76
7.96
9.33
9.81
9.50
8.59
7.37
6.07
4.87
3.84
2.98
2.24
1.60
1.05
0.59
0.22
-0.05
-0.28
-0.52
-0.79
-1.08
-1.34
-1.45
-1.37
-1.08
-0.70
-0.37
-0.27
-0.47
-0.94
-1.54
-2.19
-2.88
-3.66
-4.62
-5.76
-6.93
-7.88
-8.36
-8.25
-7.57
-6.47
-5.10
-3.57
-1.92
-0.18
1.55
3.06
4.16
4.73
4.80
4.54
4.12
3.67
3.24
2.77
2.20
1.51
0.70
-0.17
-1.05
-1.84
-2.48
-2.90
-3.10
-3.10
-3.01
-2.91
-2.84
-2.78
-2.68
-2.51
-2.32
-2.23
-2.36
-2.80
-3.55
-4.46
-5.37
-6.15
-6.77
-7.27
-7.69
-7.95
-7.90
-7.30
-5.99
-3.99
-1.51
1.10
3.51
5.53
7.15
8.43
9.42
10.13
10.50
10.50
10.22
9.86
9.67
9.86
10.49
11.41
12.31
12.85
12.77
12.02
10.74
9.16
7.54
6.01
4.58
3.20
1.85
0.55
-0.55
-1.41
-2.05
-2.61
-3.32
-4.32
-5.67
-7.28
-9.03
-10.77
-12.42
-13.88
-15.03
-15.74
-15.88
-15.45
-14.54
-13.37
-12.15
-10.99
-9.90
-8.86
-7.91
-7.18
-6.85
-7.06
-7.81
-8.95
-10.26
-11.52
-12.63
-13.59
-14.47
-15.42
-16.54
-17.91
-19.60
-21.59
-23.82
-26.10
-28.20
-29.88
-30.91
-31.15
-30.55
-29.07
-26.75
-23.60
-19.62
-14.83
-9.36
-3.43
2.57
8.24
13.16
17.08
19.93
21.80
22.89
23.41
23.57
23.51
23.38
23.30
23.32
23.44
23.57
23.57
23.37
22.98
22.45
21.86
21.25
20.58
19.83
18.96
17.97
16.91
15.80
14.62
13.37
12.06
10.75
9.56
8.58
7.81
7.20
6.63
6.00
5.21
4.24
3.08
1.76
0.35
-1.07
-2.44
-3.72
-4.89
-5.94
-6.87
-7.69
-8.42
-9.14
-9.98
-11.03
-12.22
-13.35
-14.08
-14.10
-13.25
-11.60
-9.38
-6.91
-4.44
-2.12
0.01
1.98
3.77
5.37
6.69
7.64
8.19
8.35
8.19
7.83
7.40
7.04
6.82
6.78
6.88
7.01
7.06
6.95
6.71
6.41
6.18
6.04
5.91
5.65
5.12
4.30
3.31
2.34
1.55
0.96
0.45
-0.16
-0.95
-1.92
-2.97
-3.95
-4.81
-5.57
-6.25
-6.84
-7.17
-7.01
-6.18
-4.67
-2.69
-0.55
1.45
3.14
4.56
5.78
6.89
7.81
8.42
8.59
8.28
7.60
6.76
5.98
5.43
5.11
4.99
4.97
5.00
5.04
5.07
5.04
4.85
4.40
3.61
2.52
1.26
0.04
-0.94
-1.61
-2.04
-2.39
-2.88
-3.62
-4.61
-5.69
-6.74
-7.69
-8.55
-9.45
-10.42
-11.37
-12.09
-12.27
-11.69
-10.34
-8.38
-6.12
-3.84
-1.76
0.05
1.52
2.64
3.35
3.66
3.66
3.48
3.24
3.01
2.77
2.49
2.20
1.95
1.83
1.89
2.10
2.40
2.72
3.02
3.23
3.25
2.96
2.30
1.31
0.19
-0.85
-1.68
-2.32
-2.93
-3.59
-4.31
-5.01
-5.62
-6.25
-7.08
-8.27
-9.76
-11.23
-12.18
-12.24
-11.28
-9.52
-7.36
-5.17
-3.13
-1.23
0.63
2.51
4.34
5.99
7.30
8.16
8.53
8.43
7.98
7.30
6.57
5.96
5.57
5.42
5.44
5.51
5.50
5.30
4.87
4.24
3.45
2.57
1.65
0.74
-0.11
-0.86
-1.51
-2.08
-2.65
-3.31
-4.15
-5.16
-6.26
-7.31
-8.19
-8.89
-9.48
-10.10
-10.79
-11.47
-11.92
-11.90
-11.25
-9.96
-8.18
-6.15
-4.09
-2.12
-0.33
1.24
2.58
3.65
4.45
5.01
5.38
5.59
5.67
5.63
5.54
5.50
5.63
5.95
6.38
6.69
6.63
6.09
5.09
3.87
2.72
1.81
1.18
0.75
0.40
0.04
-0.29
-0.51
-0.59
-0.56
-0.52
-0.60
-0.87
-1.33
-1.86
-2.34
-2.69
-2.90
-3.00
-3.04
-2.95
-2.63
-1.91
-0.68
0.99
2.91
4.79
6.40
7.66
8.61
9.33
9.86
10.15
10.08
9.63
8.89
8.05
7.36
6.94
6.75
6.61
6.32
5.78
5.07
4.35
3.78
3.45
3.33
3.30
3.23
3.02
2.62
2.03
1.32
0.56
-0.17
-0.81
-1.38
-1.97
-2.64
-3.47
-4.40
-5.32
-6.05
-6.46
-6.49
-6.15
-5.47
-4.47
-3.18
-1.62
0.09
1.79
3.26
4.32
4.83
4.74
4.12
3.16
2.05
1.02
0.21
-0.31
-0.54
-0.57
-0.50
-0.44
-0.47
-0.64
-0.95
-1.38
-1.86
-2.31
-2.64
-2.80
-2.82
-2.76
-2.76
-2.96
-3.42
-4.19
-5.21
-6.44
-7.80
-9.25
-10.76
-12.24
-13.60
-14.72
-15.47
-15.75
-15.50
-14.68
-13.26
-11.26
-8.82
-6.19
-3.71
-1.74
-0.44
0.23
0.49
0.63
0.80
1.03
1.24
1.36
1.40
1.44
1.56
1.77
2.00
2.11
1.99
1.61
0.98
0.21
-0.61
-1.34
-1.90
-2.26
-2.47
-2.68
-3.08
-3.76
-4.75
-5.90
-7.03
-7.95
-8.57
-8.92
-9.04
-9.00
-8.83
-8.48
-7.84
-6.81
-5.34
-3.45
-1.31
0.84
2.77
4.27
5.30
5.96
6.39
6.77
7.17
7.55
7.80
7.78
7.43
6.83
6.14
5.55
5.21
5.14
5.26
5.44
5.62
5.79
6.03
6.36
6.69
6.85
6.62
5.85
4.52
2.81
0.99
-0.62
-1.84
-2.59
-2.96
-3.17
-3.46
-3.98
-4.75
-5.55
-6.05
-5.93
-5.06
-3.50
-1.53
0.53
2.45
4.12
5.51
6.63
7.39
7.70
7.47
6.77
5.78
4.74
3.88
3.32
3.04
2.93
2.85
2.69
2.39
1.97
1.48
1.00
0.55
0.13
-0.34
-0.91
-1.59
-2.33
-3.07
-3.75
-4.42
-5.18
-6.16
-7.42
-8.91
-10.50
-11.91
-12.87
-13.12
-12.47
-10.90
-8.55
-5.71
-2.72
0.05
2.34
4.04
5.15
5.79
6.14
6.36
6.57
6.78
6.94
6.96
6.79
6.43
6.00
5.65
5.49
5.59
5.95
6.54
7.30
8.17
9.00
9.58
9.74
9.38
8.62
7.76
7.18
7.17
7.81
8.90
10.07
10.85
10.84
9.81
7.73
4.79
1.35
-2.14
-5.18
-7.40
-8.61
-8.89
-8.51
-7.79
-7.00
-6.27
-5.65
-5.16
-4.87
-4.88
-5.27
-6.01
-6.91
-7.74
-8.27
-8.44
-8.40
-8.45
-8.86
-9.76
-11.02
-12.29
-13.15
-13.25
-12.47
-11.01
-9.23
-7.56
-6.32
-5.63
-5.41
-5.53
-5.82
-6.24
-6.77
-7.41
-8.09
-8.76
-9.34
-9.88
-10.40
-10.94
-11.44
-11.73
-11.62
-10.97
-9.79
-8.24
-6.55
-4.88
-3.31
-1.83
-0.40
0.94
2.12
3.03
3.63
3.94
4.07
4.11
4.12
4.07
3.95
3.72
3.44
3.22
3.17
3.37
3.81
4.43
5.07
5.59
5.87
5.82
5.46
4.84
4.08
3.34
2.73
2.28
1.94
1.61
1.16
0.53
-0.32
-1.32
-2.43
-3.54
-4.57
-5.33
-5.65
-5.33
-4.30
-2.63
-0.56
1.63
3.74
5.66
7.40
8.94
10.21
11.08
11.41
11.24
10.76
10.21
9.81
9.60
9.46
9.20
8.75
8.16
7.61
7.25
7.06
6.92
6.58
5.93
4.98
3.90
2.89
2.05
1.34
0.61
-0.28
-1.40
-2.64
-3.85
-4.88
-5.71
-6.44
-7.27
-8.31
-9.55
-10.73
-11.51
-11.50
-10.54
-8.71
-6.33
-3.80
-1.40
0.73
2.63
4.41
6.09
7.62
8.88
9.73
10.15
10.19
10.02
9.79
9.61
9.54
9.54
9.55
9.54
9.46
9.31
9.03
8.49
7.57
6.18
4.40
2.51
0.90
-0.08
-0.28
0.16
0.94
1.66
2.01
1.87
1.24
0.21
-1.13
-2.73
-4.56
-6.52
-8.45
-10.10
-11.18
-11.48
-10.91
-9.54
-7.55
-5.21
-2.76
-0.41
1.73
3.56
5.01
6.03
6.58
6.70
6.51
6.24
6.10
6.25
6.68
7.25
7.69
7.74
7.24
6.20
4.79
3.23
1.75
0.46
-0.65
-1.72
-2.85
-4.15
-5.59
-7.07
-8.47
-9.68
-10.69
-11.53
-12.28
-13.00
-13.76
-14.58
-15.48
-16.48
-17.64
-19.01
-20.63
-22.46
-24.35
-26.06
-27.36
-28.01
-27.97
-27.33
-26.31
-25.17
-24.14
-23.37
-22.89
-22.67
-22.59
-22.46
-22.04
-21.07
-19.32
-16.66
-13.12
-8.83
-4.01
1.15
6.53
12.03
17.58
23.00
28.05
32.41
35.87
38.29
39.69
40.15
39.81
38.80
37.30
35.54
33.80
32.33
31.27
30.62
30.25
29.94
29.48
28.65
27.28
25.25
22.55
19.37
16.03
12.99
10.64
9.23
8.78
9.14
10.04
11.23
12.50
13.64
14.48
14.84
14.58
13.68
12.21
10.36
8.33
6.38
4.65
3.28
2.33
1.79
1.56
1.46
1.32
0.94
0.25
-0.73
-1.83
-2.88
-3.71
-4.30
-4.74
-5.15
-5.67
-6.33
-7.11
-7.87
-8.46
-8.78
-8.80
-8.60
-8.36
-8.29
-8.55
-9.17
-9.99
-10.74
-11.15
-11.01
-10.26
-8.97
-7.28
-5.32
-3.23
-1.15
0.75
2.34
3.52
4.28
4.72
4.95
5.07
5.11
5.03
4.78
4.34
3.74
3.08
2.42
1.81
1.24
0.68
0.13
-0.41
-0.93
-1.43
-1.96
-2.57
-3.28
-4.09
-4.91
-5.66
-6.28
-6.81
-7.31
-7.92
-8.71
-9.73
-10.92
-12.16
-13.26
-14.02
-14.27
-13.90
-12.94
-11.51
-9.83
-8.10
-6.49
-5.07
-3.83
-2.74
-1.76
-0.90
-0.17
0.40
0.78
0.97
0.97
0.87
0.70
0.53
0.39
0.26
0.12
-0.03
-0.16
-0.22
-0.16
-0.03
0.09
0.12
0.03
-0.12
-0.27
-0.36
-0.42
-0.56
-0.89
-1.42
-2.14
-2.95
-3.77
-4.57
-5.31
-5.91
-6.24
-6.13
-5.48
-4.29
-2.69
-0.87
0.99
2.78
4.42
5.87
7.12
8.12
8.81
9.18
9.24
9.01
8.54
7.89
7.15
6.40
5.72
5.17
4.79
4.56
4.45
4.45
4.53
4.68
4.83
4.90
4.78
4.38
3.69
2.80
1.83
0.92
0.11
-0.63
-1.39
-2.23
-3.15
-4.05
-4.78
-5.21
-5.26
-4.93
-4.25
-3.30
-2.17
-0.95
0.28
1.43
2.40
3.15
3.63
3.77
3.57
3.03
2.22
1.30
0.39
-0.38
-0.98
-1.47
-1.92
-2.36
-2.75
-3.03
-3.15
-3.14
-3.14
-3.31
-3.78
-4.53
-5.41
-6.22
-6.81
-7.16
-7.34
-7.50
-7.75
-8.08
-8.40
-8.50
-8.23
-7.44
-6.13
-4.37
-2.30
-0.04
2.27
4.51
6.51
8.14
9.27
9.90
10.15
10.19
10.19
10.24
10.30
10.20
9.76
8.87
7.54
5.97
4.38
3.02
2.00
1.31
0.79
0.27
-0.40
-1.26
-2.25
-3.35
-4.54
-5.91
-7.52
-9.38
-11.38
-13.32
-14.99
-16.26
-17.10
-17.58
-17.77
-17.73
-17.42
-16.78
-15.68
-14.09
-12.03
-9.65
-7.15
-4.75
-2.60
-0.73
0.87
2.28
3.49
4.44
5.07
5.31
5.21
4.85
4.34
3.77
3.20
2.63
2.14
1.78
1.61
1.59
1.63
1.63
1.49
1.21
0.85
0.50
0.18
-0.14
-0.51
-1.01
-1.64
-2.35
-3.07
-3.73
-4.28
-4.69
-4.91
-4.87
-4.54
-3.91
-2.98
-1.82
-0.46
1.05
2.65
4.26
5.74
6.97
7.81
8.18
8.05
7.49
6.63
5.63
4.70
4.01
3.70
3.82
4.38
5.27
6.28
7.22
7.86
8.04
7.69
6.79
5.45
3.81
2.09
0.52
-0.69
-1.42
-1.67
-1.60
-1.47
-1.56
-2.07
-3.05
-4.35
-5.72
-6.85
-7.48
-7.40
-6.56
-4.99
-2.83
-0.30
2.31
4.71
6.60
7.78
8.15
7.76
6.79
5.52
4.24
3.17
2.40
1.87
1.45
1.00
0.46
-0.10
-0.58
-0.83
-0.80
-0.49
-0.00
0.51
0.82
0.77
0.21
-0.87
-2.37
-4.07
-5.67
-6.93
-7.72
-8.08
-8.16
-8.16
-8.25
-8.46
-8.76
-9.02
-9.09
-8.81
-8.09
-6.87
-5.18
-3.15
-0.99
1.09
2.88
4.29
5.31
6.03
6.53
6.83
6.89
6.69
6.27
5.77
5.37
5.19
5.25
5.41
5.50
5.34
4.90
4.25
3.49
2.69
1.83
0.83
-0.35
-1.71
-3.11
-4.42
-5.48
-6.17
-6.47
-6.40
-6.09
-5.70
-5.39
-5.28
-5.39
-5.68
-6.01
-6.31
-6.53
-6.71
-6.84
-6.85
-6.59
-5.93
-4.84
-3.44
-2.01
-0.84
-0.10
0.21
0.24
0.22
0.32
0.61
1.07
1.61
2.18
2.72
3.20
3.57
3.75
3.64
3.19
2.44
1.49
0.53
-0.28
-0.79
-0.96
-0.84
-0.58
-0.37
-0.40
-0.78
-1.48
-2.35
-3.20
-3.87
-4.30
-4.55
-4.72
-4.89
-5.06
-5.09
-4.83
-4.13
-2.94
-1.34
0.51
2.36
3.98
5.24
6.08
6.58
6.85
7.00
7.03
6.97
6.80
6.59
6.44
6.46
6.62
6.82
6.89
6.71
6.28
5.71
5.17
4.76
4.44
4.06
3.51
2.74
1.87
1.12
0.66
0.55
0.66
0.80
0.76
0.45
-0.07
-0.69
-1.28
-1.78
-2.24
-2.69
-3.12
-3.39
-3.29
-2.64
-1.40
0.28
2.11
3.73
4.86
5.41
5.48
5.26
4.97
4.78
4.72
4.75
4.75
4.60
4.26
3.76
3.19
2.70
2.38
2.21
2.12
1.97
1.67
1.18
0.57
-0.07
-0.70
-1.33
-2.01
-2.80
-3.68
-4.56
-5.31
-5.87
-6.26
-6.60
-7.01
-7.56
-8.23
-8.94
-9.60
-10.14
-10.49
-10.57
-10.25
-9.41
-7.98
-6.05
-3.85
-1.73
0.03
1.26
1.96
2.26
2.27
2.08
1.69
1.15
0.55
0.02
-0.35
-0.57
-0.74
-1.02
-1.48
-2.06
-2.55
-2.75
-2.60
-2.23
-1.94
-2.00
-2.50
-3.31
-4.16
-4.77
-4.99
-4.85
-4.49
-4.03
-3.58
-3.18
-2.86
-2.75
-2.94
-3.50
-4.36
-5.26
-5.85
-5.81
-4.95
-3.30
-1.11
1.28
3.52
5.38
6.75
7.65
8.21
8.58
8.90
9.22
9.57
9.86
10.01
9.94
9.60
9.02
8.31
7.61
7.05
6.76
6.77
7.05
7.49
7.93
8.20
8.17
7.76
7.00
5.98
4.85
3.76
2.82
2.02
1.26
0.39
-0.72
-2.08
-3.58
-4.99
-6.06
-6.64
-6.70
-6.32
-5.59
-4.59
-3.40
-2.07
-0.70
0.57
1.66
2.52
3.19
3.72
4.08
4.15
3.83
3.07
1.98
0.79
-0.27
-1.05
-1.55
-1.92
-2.27
-2.73
-3.28
-3.89
-4.51
-5.10
-5.63
-6.06
-6.35
-6.50
-6.58
-6.67
-6.85
-7.16
-7.58
-8.04
-8.48
-8.84
-9.09
-9.24
-9.34
-9.44
-9.55
-9.65
-9.60
-9.24
-8.40
-7.02
-5.23
-3.31
-1.55
-0.18
0.77
1.44
2.03
2.69
3.41
4.07
4.54
4.75
4.72
4.57
4.46
4.45
4.56
4.72
4.88
5.04
5.26
5.61
6.07
6.53
6.82
6.76
6.33
5.65
4.93
4.40
4.20
4.26
4.43
4.51
4.38
4.04
3.61
3.26
3.16
3.37
3.94
4.83
5.98
7.32
8.69
9.88
10.69
10.93
10.59
9.81
8.85
7.94
7.23
6.65
6.04
5.25
4.21
2.99
1.70
0.46
-0.70
-1.77
-2.71
-3.47
-4.02
-4.41
-4.78
-5.30
-6.08
-7.10
-8.20
-9.13
-9.73
-9.94
-9.83
-9.53
-9.19
-8.94
-8.86
-9.03
-9.43
-9.97
-10.50
-10.83
-10.79
-10.26
-9.15
-7.44
-5.14
-2.40
0.53
3.29
5.57
7.14
7.97
8.19
7.96
7.46
6.78
6.01
5.22
4.49
3.88
3.41
3.03
2.61
2.00
1.11
-0.10
-1.59
-3.25
-4.93
-6.53
-7.96
-9.21
-10.34
-11.47
-12.67
-14.00
-15.39
-16.72
-17.87
-18.74
-19.35
-19.75
-19.98
-20.01
-19.71
-18.92
-17.57
-15.73
-13.62
-11.49
-9.49
-7.63
-5.80
-3.91
-2.03
-0.32
1.01
1.85
2.26
2.40
2.51
2.73
3.11
3.61
4.18
4.79
5.44
6.11
6.77
7.34
7.74
7.97
8.01
7.88
7.58
7.14
6.55
5.87
5.13
4.39
3.70
3.08
2.54
2.06
1.67
1.40
1.33
1.53
2.07
2.96
4.15
5.49
6.85
8.08
9.10
9.91
10.53
11.00
11.30
11.39
11.22
10.76
10.08
9.25
8.39
7.56
6.75
5.97
5.17
4.37
3.59
2.84
2.15
1.49
0.87
0.32
-0.14
-0.51
-0.85
-1.28
-1.90
-2.78
-3.85
-4.95
-5.87
-6.43
-6.52
-6.17
-5.44
-4.44
-3.24
-1.88
-0.40
1.15
2.61
3.84
4.71
5.19
5.36
5.30
5.07
4.70
4.24
3.73
3.27
2.93
2.71
2.54
2.30
1.95
1.51
1.12
0.88
0.78
0.72
0.52
0.07
-0.65
-1.54
-2.45
-3.27
-3.95
-4.55
-5.12
-5.72
-6.32
-6.88
-7.32
-7.58
-7.58
-7.24
-6.45
-5.15
-3.38
-1.34
0.67
2.38
3.62
4.44
4.99
5.46
5.90
6.21
6.26
5.96
5.35
4.61
3.93
3.41
3.03
2.76
2.57
2.49
2.55
2.75
2.98
3.08
2.94
2.54
1.97
1.42
1.04
0.98
1.29
1.98
2.98
4.18
5.39
6.49
7.48
8.53
9.96
12.11
15.17
19.10
23.66
28.52
33.44
38.30
43.15
48.12
53.39
59.05
65.13
71.48
77.84
83.91
89.41
94.30
98.82
103.51
108.93
115.54
123.46
132.45
141.99
151.43
160.07
167.22
172.38
175.28
175.94
174.46
170.60
163.59
152.14
135.01
111.88
83.99
54.01
25.32
0.96
-17.05
-27.95
-32.10
-30.47
-24.32
-14.79
-2.72
11.28
26.74
42.98
58.82
72.41
81.57
84.51
80.55
70.57
56.75
41.65
27.14
13.76
0.71
-13.33
-29.28
-47.06
-65.39
-82.35
-96.25
-106.31
-112.76
-116.39
-117.86
-117.36
-114.80
-110.36
-104.92
-99.94
-96.98
-96.80
-98.94
-101.98
-104.32
-105.13
-104.67
-104.08
-104.47
-106.17
-108.42
-109.83
-109.19
-106.19
-101.53
-96.45
-92.10
-89.07
-87.41
-86.93
-87.51
-89.09
-91.46
-93.99
-95.73
-95.72
-93.47
-89.19
-83.64
-77.78
-72.36
-67.74
-63.93
-60.82
-58.32
-56.39
-54.91
-53.69
-52.39
-50.73
-48.60
-46.11
-43.52
-41.10
-38.98
-37.07
-35.21
-33.23
-31.15
-29.11
-27.33
-25.96
-25.01
-24.34
-23.72
-22.90
-21.65
-19.85
-17.50
-14.74
-11.94
-9.51
-7.85
-7.09
-7.12
-7.54
-7.92
-7.98
-7.68
-7.20
-6.77
-6.54
-6.46
-6.39
-6.20
-5.82
-5.27
-4.59
-3.81
-2.93
-2.04
-1.32
-1.08
-1.63
-3.08
-5.24
-7.62
-9.58
-10.60
-10.42
-9.10
-6.89
-4.17
-1.28
1.47
3.84
5.66
6.84
7.46
7.71
7.88
8.23
8.89
9.82
10.84
11.74
12.42
12.82
13.03
13.13
13.15
13.08
12.87
12.53
12.15
11.89
11.93
12.32
12.96
13.63
14.11
14.26
14.10
13.68
13.04
12.11
10.74
8.88
6.63
4.29
2.27
0.84
0.06
-0.29
-0.61
-1.29
-2.54
-4.31
-6.33
-8.23
-9.76
-10.76
-11.27
-11.40
-11.21
-10.75
-9.98
-8.83
-7.30
-5.42
-3.33
-1.20
0.82
2.62
4.23
5.75
7.32
9.03
10.83
12.57
14.01
14.95
15.38
15.40
15.26
15.16
15.18
15.25
15.23
14.97
14.43
13.70
12.88
12.07
11.27
10.41
9.42
8.27
7.00
5.71
4.49
3.39
2.41
1.51
0.63
-0.26
-1.13
-1.90
-2.43
-2.58
-2.23
-1.39
-0.22
1.05
2.18
3.01
3.51
3.76
3.82
3.74
3.51
3.13
2.64
2.13
1.73
1.49
1.41
1.43
1.44
1.36
1.12
0.69
0.06
-0.69
-1.43
-1.99
-2.23
-2.12
-1.76
-1.34
-1.07
-1.08
-1.38
-1.93
-2.68
-3.64
-4.81
-6.17
-7.63
-8.99
-10.05
-10.63
-10.68
-10.19
-9.26
-8.00
-6.53
-4.97
-3.40
-1.91
-0.50
0.80
1.92
2.80
3.31
3.42
3.19
2.84
2.62
2.72
3.18
3.83
4.44
4.79
4.79
4.50
4.08
3.62
3.16
2.61
1.86
0.83
-0.45
-1.82
-3.11
-4.17
-4.99
-5.68
-6.44
-7.45
-8.80
-10.45
-12.25
-14.06
-15.75
-17.28
-18.64
-19.77
-20.59
-20.98
-20.91
-20.41
-19.62
-18.72
-17.88
-17.19
-16.69
-16.31
-16.02
-15.71
-15.26
-14.34
-12.46
-8.89
-2.90
6.02
17.91
32.21
47.78
63.19
77.09
88.38
96.54
101.52
103.64
103.39
101.34
98.01
93.83
89.15
84.23
79.23
74.23
69.23
64.20
59.13
54.05
49.02
44.04
39.05
33.92
28.49
22.70
16.70
10.86
5.71
1.71
-0.88
-2.14
-2.46
-2.35
-2.31
-2.62
-3.37
-4.49
-5.84
-7.33
-8.93
-10.61
-12.29
-13.88
-15.29
-16.49
-17.50
-18.38
-19.21
-19.94
-20.50
-20.85
-20.97
-20.99
-21.04
-21.24
-21.62
-22.11
-22.64
-23.13
-23.53
-23.80
-23.88
-23.72
-23.34
-22.88
-22.59
-22.68
-23.19
-23.95
-24.61
-24.87
-24.58
-23.84
-22.83
-21.69
-20.38
-18.70
-16.52
-13.84
-10.99
-8.41
-6.51
-5.43
-5.05
-5.05
-5.06
-4.87
-4.43
-3.85
-3.32
-2.94
-2.76
-2.73
-2.78
-2.79
-2.75
-2.66
-2.59
-2.64
-2.84
-3.20
-3.66
-4.16
-4.67
-5.19
-5.75
-6.34
-6.94
-7.51
-8.01
-8.46
-8.93
-9.51
-10.26
-11.16
-12.06
-12.75
-13.03
-12.81
-12.10
-11.00
-9.67
-8.21
-6.69
-5.15
-3.63
-2.22
-1.01
-0.08
0.57
0.93
1.12
1.22
1.33
1.48
1.66
1.81
1.84
1.71
1.47
1.23
1.14
1.28
1.61
2.01
2.29
2.30
1.99
1.39
0.62
-0.20
-0.95
-1.58
-2.04
-2.40
-2.74
-3.15
-3.71
-4.42
-5.25
-6.10
-6.91
-7.64
-8.25
-8.66
-8.76
-8.41
-7.56
-6.27
-4.72
-3.10
-1.57
-0.18
1.10
2.27
3.33
4.22
4.89
5.33
5.59
5.77
5.86
5.84
5.66
5.34
4.98
4.73
4.70
4.87
5.11
5.23
5.12
4.78
4.28
3.74
3.24
2.75
2.21
1.52
0.64
-0.40
-1.51
-2.58
-3.59
-4.52
-5.46
-6.48
-7.62
-8.83
-9.92
-10.65
-10.79
-10.23
-8.99
-7.23
-5.19
-3.08
-1.10
0.64
2.08
3.20
4.00
4.52
4.84
5.02
5.13
5.20
5.24
5.25
5.26
5.29
5.38
5.50
5.62
5.66
5.59
5.41
5.16
4.85
4.45
3.90
3.16
2.19
1.00
-0.30
-1.62
-2.84
-3.91
-4.79
-5.52
-6.16
-6.81
-7.57
-8.50
-9.54
-10.55
-11.28
-11.54
-11.22
-10.33
-8.96
-7.23
-5.25
-3.11
-0.92
1.20
3.12
4.72
5.96
6.81
7.31
7.54
7.55
7.45
7.33
7.22
7.14
7.05
6.89
6.65
6.35
6.06
5.80
5.58
5.35
5.08
4.73
4.31
3.85
3.36
2.82
2.14
1.26
0.13
-1.18
-2.51
-3.72
-4.68
-5.41
-6.05
-6.76
-7.67
-8.74
-9.78
-10.53
-10.78
-10.42
-9.50
-8.16
-6.53
-4.73
-2.82
-0.84
1.10
2.87
4.34
5.41
6.06
6.36
6.42
6.39
6.38
6.47
6.65
6.88
7.07
7.19
7.22
7.22
7.28
7.46
7.72
7.95
7.98
7.70
7.07
6.20
5.25
4.39
3.72
3.26
2.96
2.73
2.46
2.04
1.38
0.43
-0.76
-2.04
-3.26
-4.24
-4.89
-5.20
-5.24
-5.02
-4.48
-3.43
-1.66
0.97
4.37
8.19
11.89
14.92
16.96
18.05
18.59
19.19
20.39
22.41
25.05
27.77
29.96
31.26
31.83
32.25
33.36
35.75
39.48
43.92
48.07
51.01
52.35
52.53
52.72
54.40
58.85
66.75
77.76
90.42
102.06
109.33
108.89
98.64
78.69
51.66
22.12
-5.01
-26.15
-40.25
-48.77
-54.65
-60.70
-68.35
-77.27
-85.91
-92.49
-95.97
-96.33
-94.40
-91.29
-87.91
-84.71
-81.78
-79.09
-76.70
-74.79
-73.45
-72.58
-71.74
-70.38
-67.94
-64.16
-59.19
-53.48
-47.65
-42.26
-37.65
-33.87
-30.72
-27.84
-24.89
-21.70
-18.32
-15.03
-12.20
-10.11
-8.83
-8.25
-8.17
-8.43
-9.01
-10.06
-11.72
-14.03
-16.78
-19.54
-21.77
-23.04
-23.07
-21.92
-19.82
-17.14
-14.12
-10.83
-7.23
-3.20
1.24
5.96
10.70
15.24
19.49
23.44
27.05
30.13
32.40
33.55
33.41
32.10
29.90
27.10
23.78
19.71
14.47
7.67
-0.80
-10.72
-21.53
-32.51
-42.94
-52.18
-59.78
-65.44
-69.12
-71.01
-71.58
-71.47
-71.25
-71.19
-70.95
-69.59
-65.88
-58.73
-47.69
-33.10
-16.08
1.88
19.26
34.71
47.15
55.82
60.44
61.31
59.49
56.57
54.35
54.33
57.30
63.29
71.73
81.69
92.04
101.45
108.34
111.05
108.33
99.81
86.45
70.50
54.85
42.13
33.76
29.61
28.21
27.69
26.68
25.03
23.70
24.20
27.54
33.51
40.48
45.94
47.45
43.79
35.69
25.87
18.32
17.06
24.58
40.84
62.99
86.11
104.74
114.53
113.45
102.15
83.62
62.13
42.15
27.09
18.51
15.66
15.84
15.32
10.79
0.67
-14.39
-31.83
-48.57
-62.29
-72.37
-79.72
-85.93
-92.12
-98.32
-103.55
-106.40
-105.72
-101.10
-92.79
-81.57
-68.32
-53.92
-39.12
-24.61
-10.89
1.79
13.56
24.87
36.27
48.15
60.34
72.13
82.32
89.55
92.67
91.06
84.79
74.59
61.60
47.05
31.98
17.06
2.64
-11.11
-23.98
-35.60
-45.44
-52.93
-57.60
-59.25
-58.09
-54.72
-49.94
-44.67
-39.69
-35.57
-32.61
-30.90
-30.32
-30.58
-31.25
-31.88
-32.16
-32.08
-31.90
-32.00
-32.61
-33.65
-34.65
-35.05
-34.42
-32.72
-30.29
-27.70
-25.39
-23.61
-22.33
-21.38
-20.56
-19.74
-18.82
-17.67
-16.10
-13.86
-10.79
-6.90
-2.42
2.20
6.48
10.03
12.70
14.51
15.53
15.81
15.34
14.09
12.11
9.58
6.80
4.10
1.83
0.18
-0.82
-1.33
-1.67
-2.24
-3.32
-4.91
-6.65
-7.86
-7.81
-5.96
-2.25
2.94
8.88
14.77
19.99
24.18
27.25
29.23
30.19
30.21
29.35
27.75
25.62
23.25
20.87
18.69
16.80
15.24
14.05
13.26
12.91
12.96
13.27
13.60
13.65
13.11
11.80
9.65
6.79
3.47
0.04
-3.16
-5.95
-8.31
-10.45
-12.66
-15.20
-18.10
-21.15
-23.93
-25.89
-26.55
-25.60
-23.01
-19.02
-14.14
-9.00
-4.22
-0.33
2.41
3.93
4.35
3.90
2.83
1.41
-0.06
-1.26
-1.94
-1.97
-1.42
-0.57
0.20
0.62
0.59
0.21
-0.30
-0.78
-1.14
-1.45
-1.75
-2.06
-2.31
-2.47
-2.56
-2.79
-3.41
-4.64
-6.54
-8.97
-11.58
-13.93
-15.57
-16.12
-15.30
-12.95
-9.15
-4.23
1.23
6.48
10.86
13.94
15.64
16.22
16.07
15.58
14.97
14.29
13.51
12.63
11.73
10.99
10.58
10.54
10.75
10.95
10.88
10.35
9.35
8.01
6.57
5.20
3.94
2.72
1.39
-0.15
-1.88
-3.73
-5.64
-7.59
-9.68
-12.01
-14.53
-16.95
-18.74
-19.30
-18.15
-15.19
-10.69
-5.29
0.27
5.40
9.73
13.22
15.96
18.09
19.65
20.61
20.88
20.42
19.33
17.94
16.73
16.25
16.89
18.74
21.49
24.45
26.80
27.87
27.39
25.61
23.16
20.93
19.86
20.85
24.66
31.76
42.17
55.22
69.56
83.42
95.02
103.09
107.12
107.25
103.97
97.70
88.69
77.15
63.69
49.55
36.56
26.55
20.55
18.23
17.75
16.38
11.50
1.66
-12.90
-30.47
-48.62
-65.13
-78.58
-88.41
-94.59
-97.20
-96.31
-92.11
-85.26
-76.96
-68.74
-62.00
-57.53
-55.29
-54.55
-54.27
-53.54
-51.90
-49.39
-46.43
-43.56
-41.20
-39.49
-38.30
-37.35
-36.29
-34.93
-33.16
-30.98
-28.37
-25.30
-21.71
-17.56
-12.92
-8.04
-3.26
1.03
4.55
7.21
9.11
10.43
11.36
12.02
12.45
12.64
12.61
12.43
12.16
11.88
11.59
11.25
10.84
10.33
9.69
8.88
7.86
6.62
5.22
3.78
2.40
1.19
0.11
-0.94
-2.10
-3.48
-5.11
-6.97
-8.96
-10.90
-12.60
-13.78
-14.21
-13.67
-12.13
-9.70
-6.69
-3.47
-0.38
2.38
4.74
6.72
8.36
9.67
10.62
11.15
11.34
11.27
11.14
11.10
11.23
11.52
11.83
12.00
11.93
11.62
11.15
10.65
10.22
9.81
9.28
8.44
7.24
5.75
4.17
2.73
1.54
0.56
-0.38
-1.47
-2.83
-4.48
-6.36
-8.22
-9.78
-10.64
-10.52
-9.23
-6.87
-3.77
-0.38
2.80
5.47
7.55
9.12
10.34
11.34
12.15
12.73
13.04
13.14
13.19
13.34
13.63
13.96
14.11
13.84
13.06
11.89
10.57
9.30
8.15
7.05
5.87
4.57
3.24
2.08
1.26
0.77
0.46
0.07
-0.54
-1.33
-2.08
-2.51
-2.43
-1.86
-0.92
0.25
1.66
3.57
6.37
10.42
15.86
22.42
29.51
36.38
42.35
47.04
50.56
53.36
56.14
59.49
63.62
68.29
72.90
76.82
79.71
81.73
83.39
85.34
88.02
91.52
95.53
99.24
101.30
99.68
91.85
75.46
49.26
14.06
-27.12
-69.76
-109.23
-142.27
-167.60
-185.64
-197.44
-203.77
-204.69
-199.93
-189.65
-174.99
-158.02
-141.03
-125.79
-112.89
-101.81
-91.36
-80.31
-67.92
-54.13
-39.57
-25.22
-12.09
-0.76
8.93
17.96
27.74
39.43
53.20
68.00
81.82
92.50
98.52
99.37
95.37
87.18
75.42
60.76
44.27
27.70
13.16
2.34
-4.25
-7.51
-9.26
-11.32
-14.62
-18.89
-23.00
-25.60
-25.78
-23.29
-18.50
-12.09
-4.84
2.59
9.66
16.04
21.57
26.17
29.86
32.63
34.59
35.97
37.33
39.36
42.65
47.38
53.14
59.02
64.03
67.50
69.33
70.00
70.23
70.73
72.07
74.76
79.25
85.62
92.99
99.10
100.55
93.84
76.94
50.51
18.00
-15.45
-44.94
-67.46
-82.42
-91.07
-95.22
-96.20
-94.50
-90.25
-83.89
-76.47
-69.45
-64.01
-60.54
-58.45
-56.62
-54.00
-50.20
-45.64
-41.33
-38.28
-37.00
-37.32
-38.41
-39.27
-39.09
-37.60
-35.05
-32.03
-29.16
-26.94
-25.57
-25.06
-25.21
-25.70
-26.21
-26.46
-26.31
-25.81
-25.17
-24.62
-24.39
-24.62
-25.30
-26.33
-27.49
-28.43
-28.72
-27.96
-25.87
-22.47
-18.04
-13.07
-8.04
-3.34
0.83
4.38
7.31
9.58
11.13
11.94
12.08
11.72
11.15
10.66
10.45
10.58
10.94
11.30
11.47
11.36
10.94
10.25
9.30
8.06
6.53
4.76
2.89
1.10
-0.42
-1.63
-2.59
-3.44
-4.40
-5.67
-7.42
-9.68
-12.30
-14.89
-16.89
-17.74
-17.10
-14.99
-11.78
-7.99
-4.06
-0.30
3.19
6.33
9.00
11.05
12.38
13.02
13.14
12.99
12.80
12.68
12.66
12.71
12.81
12.91
12.98
12.94
12.70
12.18
11.36
10.28
8.93
7.28
5.28
2.96
0.42
-2.13
-4.49
-6.55
-8.33
-10.04
-11.99
-14.48
-17.65
-21.35
-25.12
-28.25
-29.97
-29.78
-27.64
-24.04
-19.90
-16.15
-13.46
-11.98
-11.38
-11.09
-10.61
-9.70
-8.47
-7.21
-6.22
-5.57
-5.03
-4.23
-2.81
-0.75
1.69
4.07
6.11
7.79
9.24
10.55
11.62
12.36
12.97
14.15
16.88
21.81
28.64
36.01
41.93
44.79
44.21
41.20
37.69
35.47
35.37
37.07
39.43
41.21
41.63
40.56
38.36
35.53
32.44
29.27
26.03
22.77
19.61
16.86
14.85
13.76
13.57
13.96
14.48
14.67
14.29
13.33
11.97
10.51
9.21
8.28
7.84
7.88
8.30
8.84
9.25
9.29
8.98
8.58
8.50
9.09
10.51
12.54
14.75
16.72
18.24
19.48
21.02
23.78
28.84
37.23
49.62
65.97
85.37
105.91
124.97
139.82
148.30
149.42
143.70
132.96
119.71
106.31
94.25
83.85
74.49
65.24
55.52
45.43
35.67
27.18
20.71
16.66
15.16
16.28
19.99
25.97
33.37
40.76
46.40
48.91
47.66
42.93
35.66
26.85
17.20
7.08
-3.33
-13.71
-23.50
-31.93
-38.22
-41.75
-42.13
-39.31
-33.59
-25.67
-16.61
-7.69
-0.13
5.16
7.88
8.31
7.23
5.58
4.13
3.22
2.67
1.88
0.10
-3.21
-8.17
-14.46
-21.47
-28.59
-35.35
-41.59
-47.32
-52.70
-57.91
-63.04
-68.08
-72.87
-77.11
-80.52
-82.91
-84.18
-84.48
-83.99
-82.93
-81.54
-80.08
-78.83
-78.06
-77.96
-78.48
-79.32
-79.94
-79.77
-78.41
-75.76
-72.02
-67.67
-63.21
-59.04
-55.33
-52.03
-49.00
-46.11
-43.32
-40.71
-38.30
-36.08
-33.92
-31.75
-29.52
-27.31
-25.28
-23.55
-22.22
-21.27
-20.56
-19.89
-19.10
-18.07
-16.84
-15.56
-14.42
-13.55
-12.96
-12.57
-12.24
-11.87
-11.55
-11.43
-11.70
-12.47
-13.65
-15.00
-16.20
-16.97
-17.08
-16.49
-15.24
-13.51
-11.51
-9.44
-7.47
-5.75
-4.41
-3.49
-2.99
-2.78
-2.68
-2.48
-2.06
-1.42
-0.68
-0.03
0.40
0.51
0.28
-0.28
-1.14
-2.20
-3.34
-4.38
-5.17
-5.66
-5.93
-6.11
-6.34
-6.69
-7.11
-7.55
-7.97
-8.35
-8.69
-9.04
-9.44
-9.95
-10.65
-11.53
-12.51
-13.38
-13.91
-13.86
-13.14
-11.79
-9.95
-7.79
-5.49
-3.21
-1.11
0.61
1.82
2.45
2.58
2.39
2.10
1.84
1.66
1.52
1.33
1.02
0.62
0.21
-0.05
-0.12
-0.02
0.08
-0.02
-0.44
-1.17
-2.07
-2.94
-3.66
-4.20
-4.67
-5.23
-5.99
-7.03
-8.32
-9.78
-11.22
-12.43
-13.18
-13.24
-12.45
-10.81
-8.50
-5.82
-3.13
-0.77
1.06
2.36
3.24
3.86
4.31
4.58
4.62
4.37
3.89
3.35
2.97
2.88
3.11
3.53
3.98
4.32
4.48
4.49
4.36
4.11
3.70
3.08
2.22
1.17
0.05
-1.07
-2.13
-3.22
-4.49
-6.10
-8.06
-10.22
-12.16
-13.43
-13.61
-12.50
-10.21
-7.07
-3.56
-0.13
2.94
5.50
7.58
9.18
10.28
10.84
10.81
10.28
9.48
8.69
8.17
8.01
8.09
8.18
8.02
7.44
6.42
5.06
3.56
2.09
0.80
-0.26
-1.13
-1.90
-2.69
-3.58
-4.61
-5.77
-7.03
-8.36
-9.74
-11.12
-12.32
-13.11
-13.18
-12.31
-10.43
-7.70
-4.48
-1.24
1.57
3.70
5.15
6.15
7.03
7.98
8.98
9.81
10.23
10.10
9.55
8.85
8.29
8.02
8.00
8.05
8.03
7.89
7.67
7.43
7.14
6.69
5.94
4.77
3.24
1.46
-0.42
-2.29
-4.19
-6.22
-8.45
-10.81
-13.06
-14.76
-15.53
-15.13
-13.61
-11.27
-8.50
-5.61
-2.78
-0.05
2.57
4.99
7.02
8.48
9.25
9.37
9.08
8.65
8.37
8.35
8.58
8.91
9.14
9.07
8.65
7.94
7.09
6.30
5.66
5.15
4.65
4.02
3.20
2.22
1.17
0.07
-1.16
-2.65
-4.56
-6.86
-9.33
-11.55
-13.08
-13.58
-12.90
-11.17
-8.63
-5.59
-2.31
1.00
4.16
6.99
9.35
11.13
12.31
12.97
13.21
13.16
12.91
12.55
12.13
11.75
11.48
11.33
11.26
11.16
10.85
10.25
9.33
8.14
6.80
5.44
4.12
2.88
1.70
0.53
-0.65
-1.91
-3.29
-4.88
-6.70
-8.66
-10.54
-12.00
-12.69
-12.31
-10.80
-8.29
-5.04
-1.39
2.36
5.94
9.12
11.70
13.52
14.57
14.91
14.75
14.38
14.01
13.81
13.77
13.80
13.76
13.54
13.12
12.59
12.06
11.62
11.24
10.79
10.13
9.15
7.89
6.50
5.16
3.93
2.74
1.45
-0.11
-2.00
-4.21
-6.66
-9.27
-11.91
-14.36
-16.28
-17.25
-16.93
-15.20
-12.26
-8.61
-4.77
-1.15
2.08
4.98
7.68
10.18
12.35
14.02
15.05
15.42
15.27
14.81
14.24
13.73
13.39
13.26
13.37
13.63
13.89
13.97
13.67
12.92
11.78
10.34
8.75
7.08
5.34
3.57
1.84
0.26
-1.07
-2.13
-3.04
-4.02
-5.29
-7.02
-9.18
-11.64
-14.16
-16.50
-18.41
-19.66
-20.03
-19.30
-17.39
-14.33
-10.41
-6.06
-1.78
2.02
5.12
7.47
9.15
10.23
10.80
10.93
10.71
10.29
9.90
9.69
9.80
10.23
10.89
11.64
12.29
12.64
12.54
11.90
10.77
9.34
7.86
6.57
5.53
4.71
3.95
3.13
2.16
1.03
-0.24
-1.64
-3.16
-4.76
-6.44
-8.21
-10.10
-12.17
-14.49
-17.08
-19.87
-22.70
-25.25
-27.18
-28.12
-27.84
-26.30
-23.73
-20.56
-17.34
-14.55
-12.53
-11.37
-11.03
-11.36
-12.26
-13.61
-15.30
-17.23
-19.29
-21.38
-23.47
-25.55
-27.62
-29.68
-31.76
-33.88
-36.09
-38.42
-40.92
-43.58
-46.38
-49.37
-52.67
-56.54
-61.26
-67.00
-73.67
-80.86
-87.93
-94.16
-99.05
-102.38
-104.37
-105.51
-106.48
-107.90
-110.16
-113.25
-116.79
-120.20
-122.82
-124.22
-124.31
-123.32
-121.78
-120.27
-119.26
-118.85
-118.49
-116.82
-111.86
-101.49
-84.23
-59.93
-30.15
2.02
32.75
58.59
77.39
88.89
94.42
96.27
96.73
97.48
99.54
103.58
110.21
119.76
131.74
144.28
154.32
158.70
155.79
146.52
134.30
123.34
116.54
114.08
113.51
111.37
105.05
94.01
79.60
63.81
47.98
32.20
15.74
-1.99
-20.69
-39.00
-54.99
-67.03
-74.28
-76.93
-75.83
-72.02
-66.34
-59.24
-50.89
-41.39
-30.89
-19.64
-7.84
4.44
17.25
30.69
44.69
58.96
73.00
86.19
98.06
108.41
117.48
125.93
134.63
144.37
155.60
168.20
181.42
193.90
203.89
209.70
210.23
205.45
196.62
186.03
176.36
169.71
166.91
167.26
168.87
169.31
166.32
158.30
144.46
124.90
100.46
72.80
44.07
16.60
-7.69
-27.74
-43.53
-56.02
-66.74
-77.30
-88.90
-102.00
-116.19
-130.24
-142.49
-151.40
-156.17
-157.20
-156.14
-155.33
-156.89
-161.91
-169.84
-178.74
-185.94
-188.90
-185.57
-174.46
-154.72
-126.46
-91.44
-53.45
-17.80
10.07
26.56
31.27
27.11
18.88
11.37
7.70
8.86
14.31
23.05
34.15
46.81
59.99
72.17
81.59
86.82
87.30
83.55
76.94
69.36
62.44
57.11
53.43
50.66
47.76
43.85
38.62
32.33
25.63
19.13
13.16
7.80
3.01
-1.17
-4.58
-7.00
-8.37
-8.85
-8.81
-8.60
-8.49
-8.52
-8.62
-8.71
-8.79
-8.98
-9.43
-10.26
-11.50
-13.02
-14.67
-16.32
-17.96
-19.72
-21.79
-24.22
-26.86
-29.31
-31.04
-31.60
-30.83
-28.89
-26.16
-23.05
-19.87
-16.80
-13.92
-11.31
-9.09
-7.39
-6.25
-5.59
-5.24
-4.95
-4.53
-3.90
-3.07
-2.13
-1.22
-0.45
0.07
0.31
0.25
-0.08
-0.69
-1.59
-2.72
-4.00
-5.25
-6.28
-7.01
-7.49
-7.94
-8.63
-9.75
-11.26
-12.90
-14.24
-14.82
-14.35
-12.73
-10.05
-6.56
-2.54
1.70
5.85
9.64
12.89
15.41
17.16
18.14
18.49
18.35
17.96
17.56
17.29
17.25
17.34
17.41
17.24
16.69
15.75
14.51
13.11
11.62
10.04
8.36
6.58
4.77
3.04
1.49
0.10
-1.23
-2.69
-4.46
-6.65
-9.26
-12.17
-15.06
-17.52
-19.06
-19.31
-18.12
-15.69
-12.44
-8.88
-5.43
-2.27
0.56
3.09
5.25
6.90
7.86
8.05
7.54
6.54
5.34
4.22
3.36
2.86
2.72
2.87
3.20
3.57
3.87
3.94
3.64
2.80
1.38
-0.56
-2.77
-4.91
-6.74
-8.16
-9.37
-10.67
-12.30
-14.36
-16.72
-19.13
-21.26
-22.79
-23.39
-22.78
-20.74
-17.30
-12.69
-7.43
-2.14
2.68
6.72
9.94
12.41
14.29
15.67
16.63
17.22
17.55
17.69
17.72
17.60
17.30
16.77
16.04
15.25
14.53
13.95
13.43
12.74
11.55
9.64
6.94
3.60
-0.05
-3.63
-6.82
-9.47
-11.63
-13.53
-15.52
-17.91
-20.83
-24.10
-27.19
-29.37
-29.90
-28.37
-24.84
-19.84
-14.17
-8.63
-3.81
0.09
3.14
5.68
8.07
10.56
13.22
15.87
18.22
20.01
21.12
21.61
21.67
21.49
21.15
20.60
19.74
18.53
17.04
15.40
13.71
11.99
10.14
8.09
5.82
3.43
1.03
-1.26
-3.43
-5.56
-7.78
-10.26
-13.07
-16.20
-19.55
-22.84
-25.71
-27.72
-28.46
-27.68
-25.32
-21.57
-16.85
-11.65
-6.40
-1.42
3.09
7.02
10.21
12.51
13.83
14.22
13.90
13.28
12.71
12.36
12.19
12.02
11.66
11.07
10.33
9.58
8.90
8.24
7.52
6.65
5.67
4.68
3.78
3.04
2.40
1.78
1.05
0.09
-1.15
-2.71
-4.66
-7.01
-9.74
-12.79
-16.00
-19.08
-21.69
-23.37
-23.75
-22.56
-19.77
-15.59
-10.44
-4.80
0.82
6.03
10.55
14.18
16.82
18.48
19.29
19.50
19.42
19.37
19.50
19.85
20.26
20.58
20.64
20.34
19.67
18.67
17.37
15.81
14.05
12.08
9.92
7.55
4.93
2.09
-0.89
-3.89
-6.77
-9.44
-11.89
-14.15
-16.30
-18.43
-20.61
-22.84
-25.08
-27.18
-28.92
-29.97
-29.93
-28.46
-25.35
-20.66
-14.79
-8.29
-1.77
4.26
9.54
13.99
17.67
20.61
22.84
24.32
25.04
25.09
24.64
23.88
23.06
22.29
21.67
21.20
20.83
20.50
20.13
19.71
19.27
18.84
18.41
17.89
17.09
15.89
14.23
12.26
10.22
8.34
6.70
5.15
3.40
1.18
-1.64
-4.95
-8.49
-12.00
-15.37
-18.62
-21.76
-24.65
-26.91
-27.94
-27.12
-24.14
-19.09
-12.59
-5.49
1.28
7.12
11.84
15.73
19.38
23.38
28.00
33.00
37.64
41.03
42.54
42.17
40.77
39.73
40.45
43.67
49.10
55.40
60.80
63.88
64.33
63.16
62.44
64.58
71.45
83.78
100.86
120.54
139.51
153.82
159.61
154.12
136.85
110.01
78.18
46.79
20.03
-0.84
-17.91
-35.18
-56.06
-80.98
-106.70
-127.63
-138.53
-137.14
-125.19
-107.39
-89.02
-73.52
-61.46
-51.24
-41.01
-30.29
-20.50
-13.99
-12.41
-15.39
-20.37
-23.78
-22.71
-16.17
-5.37
7.24
19.56
30.97
42.59
56.28
73.21
92.79
112.65
129.45
140.20
143.15
138.02
125.52
106.71
82.59
54.16
22.66
-10.33
-43.06
-73.93
-101.83
-126.21
-146.98
-164.40
-179.10
-191.98
-204.15
-216.58
-229.61
-242.60
-253.69
-260.09
-258.61
-246.70
-223.25
-189.19
-147.34
-101.68
-56.30
-14.28
22.80
54.79
82.32
106.08
126.38
143.21
156.55
166.61
173.90
178.88
181.71
182.05
179.29
172.90
162.88
149.92
135.25
120.32
106.15
93.01
80.35
67.11
52.23
35.12
15.89
-4.94
-26.76
-49.25
-72.41
-96.27
-120.60
-144.65
-167.29
-187.29
-203.72
-216.07
-224.22
-228.28
-228.52
-225.17
-218.46
-208.56
-195.61
-179.76
-161.24
-140.40
-117.63
-93.31
-67.71
-41.06
-13.72
13.63
39.97
64.10
84.97
101.96
115.01
124.45
130.81
134.53
135.86
134.92
131.79
126.64
119.77
111.61
102.59
93.09
83.47
74.09
65.36
57.64
51.17
45.95
41.75
38.19
34.92
31.78
28.83
26.26
24.25
22.85
21.97
21.37
20.86
20.30
19.61
18.78
17.74
16.44
14.82
12.91
10.86
8.88
7.10
5.52
3.94
2.13
-0.07
-2.62
-5.25
-7.64
-9.56
-11.01
-12.13
-13.14
-14.20
-15.35
-16.57
-17.82
-19.12
-20.54
-22.15
-24.03
-26.22
-28.70
-31.45
-34.33
-37.19
-39.76
-41.75
-42.92
-43.05
-42.06
-40.05
-37.23
-33.94
-30.53
-27.24
-24.18
-21.31
-18.51
-15.78
-13.21
-11.05
-9.48
-8.52
-7.93
-7.34
-6.42
-5.10
-3.61
-2.37
-1.75
-1.90
-2.66
-3.69
-4.64
-5.30
-5.72
-6.09
-6.73
-7.88
-9.61
-11.77
-14.04
-16.05
-17.58
-18.56
-19.18
-19.69
-20.27
-20.86
-21.17
-20.81
-19.47
-17.09
-13.79
-9.88
-5.64
-1.26
3.11
7.31
11.17
14.45
17.00
18.80
20.01
20.89
21.66
22.34
22.78
22.71
21.95
20.49
18.50
16.15
13.51
10.45
6.75
2.20
-3.14
-8.97
-14.73
-19.83
-23.76
-26.27
-27.41
-27.51
-27.11
-26.76
-26.85
-27.42
-28.14
-28.44
-27.70
-25.48
-21.67
-16.54
-10.57
-4.37
1.57
6.93
11.74
16.26
20.88
25.93
31.54
37.52
43.44
48.78
53.12
56.28
58.35
59.65
60.67
61.86
63.52
65.71
68.22
70.70
72.85
74.62
76.17
77.85
80.00
82.82
86.38
90.70
95.86
101.93
108.86
116.40
123.98
130.90
136.52
140.52
142.93
144.01
144.02
143.10
141.21
138.24
134.28
129.70
125.03
120.84
117.43
114.70
112.17
109.19
105.14
99.52
91.86
81.55
67.96
50.58
29.44
5.36
-20.16
-45.28
-68.42
-88.74
-106.17
-121.23
-134.58
-146.69
-157.64
-167.23
-175.16
-181.19
-185.24
-187.36
-187.65
-186.18
-182.87
-177.45
-169.63
-159.20
-146.26
-131.34
-115.37
-99.37
-84.23
-70.42
-57.91
-46.29
-35.13
-24.23
-13.80
-4.35
3.56
9.66
14.16
17.69
21.08
25.01
29.70
34.85
39.67
43.24
44.86
44.31
41.99
38.67
35.21
32.36
30.55
30.06
30.97
32.94
35.03
35.47
31.99
22.75
7.25
-12.95
-34.57
-53.60
-66.93
-73.22
-73.18
-68.76
-62.14
-54.85
-47.73
-41.18
-35.76
-32.23
-31.40
-33.63
-38.56
-45.08
-51.68
-56.94
-59.99
-60.62
-59.32
-56.90
-54.18
-51.65
-49.34
-46.92
-43.92
-40.07
-35.40
-30.27
-25.20
-20.74
-17.21
-14.69
-13.03
-11.97
-11.26
-10.90
-11.09
-12.22
-14.52
-17.87
-21.58
-24.59
-25.87
-24.88
-21.82
-17.45
-12.77
-8.59
-5.30
-2.91
-1.23
-0.16
0.36
0.29
-0.28
-1.19
-2.18
-3.05
-3.69
-4.13
-4.41
-4.57
-4.66
-4.73
-4.84
-5.11
-5.57
-6.18
-6.79
-7.28
-7.59
-7.81
-8.10
-8.66
-9.56
-10.80
-12.31
-13.98
-15.68
-17.23
-18.41
-18.96
-18.65
-17.37
-15.19
-12.32
-9.00
-5.48
-1.91
1.59
4.93
8.00
10.61
12.67
14.09
14.96
15.42
15.67
15.85
16.03
16.21
16.35
16.53
16.80
17.22
17.65
17.70
16.84
14.55
10.60
5.19
-1.05
-7.32
-12.80
-16.95
-19.52
-20.55
-20.23
-18.91
-17.07
-15.25
-14.00
-13.59
-13.93
-14.54
-14.72
-13.98
-12.23
-9.86
-7.56
-5.97
-5.40
-5.89
-7.23
-9.16
-11.49
-13.98
-16.26
-17.86
-18.31
-17.30
-14.86
-11.30
-7.11
-2.79
1.30
4.93
7.97
10.33
12.01
13.01
13.42
13.39
13.07
12.51
11.66
10.33
8.28
5.33
1.43
-3.23
-8.27
-13.31
-18.03
-22.34
-26.30
-30.04
-33.51
-36.48
-38.47
-39.06
-38.06
-35.73
-32.73
-29.88
-27.85
-26.89
-26.79
-27.05
-27.21
-27.04
-26.60
-26.16
-25.94
-26.04
-26.41
-26.96
-27.61
-28.38
-29.28
-30.27
-31.26
-32.10
-32.57
-32.53
-31.89
-30.68
-29.10
-27.42
-25.98
-25.04
-24.68
-24.79
-25.07
-25.23
-25.02
-24.35
-23.27
-21.85
-20.09
-17.97
-15.45
-12.54
-9.31
-5.92
-2.55
0.57
3.22
5.17
6.21
6.18
5.09
3.05
0.28
-3.08
-7.15
-12.40
-19.55
-29.20
-41.36
-55.03
-68.19
-78.27
-83.02
-81.32
-73.61
-61.78
-48.40
-35.94
-26.13
-19.77
-16.90
-17.09
-19.74
-24.14
-29.55
-35.21
-40.43
-44.67
-47.61
-49.08
-48.93
-47.00
-43.03
-36.86
-28.53
-18.32
-6.74
5.55
17.91
29.72
40.34
49.16
55.84
60.67
64.88
70.53
79.84
94.30
113.79
136.44
159.15
178.63
192.34
199.02
198.66
191.98
180.07
164.09
145.28
125.07
105.06
86.95
72.18
61.65
55.37
52.46
51.33
50.19
47.68
43.25
37.22
30.46
23.96
18.43
14.19
11.23
9.41
8.42
7.82
7.05
5.54
2.93
-0.76
-5.12
-9.63
-13.92
-17.91
-21.74
-25.53
-29.15
-32.13
-33.98
-34.40
-33.58
-32.10
-30.66
-29.83
-29.77
-30.32
-31.08
-31.74
-32.06
-32.00
-31.63
-31.06
-30.47
-30.03
-29.92
-30.13
-30.43
-30.39
-29.57
-27.71
-24.80
-21.13
-17.02
-12.73
-8.38
-4.02
0.24
4.19
7.51
9.94
11.46
12.27
12.71
13.07
13.50
13.92
14.18
14.16
13.83
13.30
12.71
12.17
11.73
11.37
11.04
10.67
10.20
9.54
8.57
7.21
5.38
3.10
0.47
-2.40
-5.30
-8.00
-10.21
-11.60
-11.93
-11.02
-8.91
-5.84
-2.11
1.98
6.16
10.26
14.20
17.91
21.33
24.44
27.16
29.41
31.09
32.12
32.52
32.51
32.42
32.66
33.62
35.53
38.38
41.93
45.73
49.21
51.73
52.81
52.26
50.22
47.14
43.56
39.86
36.16
32.29
27.99
22.99
17.31
11.15
4.96
-0.71
-5.35
-8.58
-10.21
-10.30
-9.11
-7.00
-4.40
-1.73
0.65
2.42
3.33
3.29
2.32
0.68
-1.28
-3.14
-4.58
-5.40
-5.62
-5.33
-4.65
-3.72
-2.66
-1.59
-0.67
-0.12
-0.04
-0.47
-1.31
-2.39
-3.56
-4.69
-5.75
-6.78
-7.90
-9.23
-10.90
-12.98
-15.38
-17.85
-19.99
-21.38
-21.61
-20.48
-17.94
-14.17
-9.54
-4.61
-0.03
3.58
5.85
6.81
6.84
6.47
6.14
6.02
6.04
6.00
5.86
5.70
5.65
5.77
5.85
5.57
4.70
3.17
1.23
-0.73
-2.35
-3.44
-4.01
-4.19
-4.22
-4.34
-4.83
-5.88
-7.57
-9.81
-12.29
-14.58
-16.16
-16.60
-15.60
-13.07
-9.10
-4.00
1.79
7.75
13.36
18.21
22.07
24.89
26.72
27.76
28.19
28.29
28.29
28.34
28.54
28.90
29.39
30.00
30.74
31.55
32.34
32.92
33.08
32.74
31.92
30.70
29.15
27.17
24.54
20.98
16.32
10.63
4.24
-2.50
-9.25
-15.80
-22.11
-28.08
-33.50
-37.98
-41.03
-42.26
-41.56
-39.08
-35.23
-30.49
-25.26
-19.82
-14.42
-9.28
-4.68
-0.80
2.30
4.82
7.12
9.57
12.48
16.01
20.21
25.12
30.79
37.24
44.42
52.07
59.83
67.27
73.97
79.68
84.32
87.95
90.70
92.72
93.98
94.20
92.82
89.08
82.30
72.15
58.89
43.46
27.33
12.23
-0.26
-9.07
-13.80
-14.78
-13.00
-9.77
-6.47
-4.20
-3.59
-4.75
-7.36
-10.82
-14.55
-18.13
-21.36
-24.29
-27.04
-29.71
-32.36
-34.94
-37.48
-40.03
-42.67
-45.40
-48.09
-50.47
-52.28
-53.36
-53.79
-53.83
-53.83
-54.02
-54.46
-55.13
-55.88
-56.68
-57.48
-58.32
-59.16
-59.93
-60.56
-60.99
-61.32
-61.68
-62.20
-62.90
-63.63
-64.09
-63.89
-62.69
-60.29
-56.70
-52.12
-46.88
-41.42
-36.15
-31.36
-27.26
-23.93
-21.33
-19.40
-18.01
-17.06
-16.46
-16.18
-16.31
-16.92
-18.09
-19.77
-21.82
-24.02
-26.16
-28.18
-30.17
-32.33
-34.92
-38.23
-42.49
-47.81
-54.05
-60.71
-66.98
-72.00
-75.26
-76.93
-77.88
-79.39
-82.66
-88.34
-96.30
-105.69
-115.19
-123.35
-128.76
-130.15
-126.53
-117.34
-102.70
-83.54
-61.52
-38.72
-17.20
1.45
16.37
27.62
35.93
42.50
48.54
54.95
62.03
69.52
76.72
82.89
87.43
90.09
90.96
90.24
88.14
84.76
80.17
74.49
68.01
61.14
54.37
48.10
42.58
37.87
33.86
30.36
27.10
23.90
20.62
17.19
13.59
9.83
5.97
2.16
-1.36
-4.24
-6.11
-6.74
-6.08
-4.28
-1.66
1.43
4.68
7.88
10.91
13.61
15.90
17.65
18.87
19.57
19.81
19.71
19.37
18.95
18.57
18.33
18.26
18.32
18.45
18.57
18.60
18.49
18.18
17.64
16.88
15.91
14.80
13.56
12.18
10.57
8.70
6.55
4.15
1.58
-1.15
-3.97
-6.71
-9.08
-10.64
-11.07
-10.21
-8.18
-5.31
-2.00
1.43
4.80
7.93
10.70
12.98
14.62
15.63
16.14
16.37
16.56
16.86
17.27
17.72
18.11
18.40
18.60
18.77
18.96
19.15
19.27
19.26
19.11
18.85
18.55
18.17
17.59
16.63
15.18
13.31
11.20
9.16
7.31
5.64
3.96
2.00
-0.33
-2.97
-5.58
-7.79
-9.20
-9.60
-8.96
-7.39
-5.12
-2.42
0.47
3.34
6.04
8.46
10.52
12.18
13.41
14.26
14.80
15.13
15.35
15.54
15.75
15.98
16.27
16.59
16.94
17.24
17.40
17.30
16.84
16.03
14.92
13.62
12.20
10.72
9.19
7.61
6.01
4.38
2.70
0.89
-1.16
-3.52
-6.13
-8.78
-11.16
-12.93
-13.84
-13.84
-12.97
-11.42
-9.42
-7.24
-5.18
-3.54
-2.49
-2.05
-2.08
-2.39
-2.75
-3.09
-3.41
-3.72
-4.01
-4.17
-4.07
-3.62
-2.81
-1.75
-0.58
0.57
1.64
2.58
3.36
3.90
4.15
4.07
3.73
3.27
2.94
2.93
3.28
3.82
4.19
4.01
3.06
1.47
-0.37
-1.91
-2.69
-2.52
-1.47
0.16
2.03
3.85
5.38
6.49
7.12
7.32
7.32
7.47
8.09
9.36
11.17
13.19
15.06
16.60
17.83
18.90
19.90
20.74
21.17
20.95
20.05
18.63
16.98
15.30
13.57
11.65
9.38
6.83
4.25
1.99
0.26
-0.97
-2.01
-3.18
-4.74
-6.67
-8.79
-10.80
-12.41
-13.38
-13.50
-12.62
-10.71
-7.84
-4.28
-0.40
3.38
6.73
9.43
11.33
12.39
12.67
12.34
11.67
10.98
10.54
10.45
10.68
11.07
11.49
11.81
12.02
12.07
11.95
11.59
10.99
10.15
9.11
7.91
6.54
4.97
3.16
1.09
-1.18
-3.54
-5.91
-8.28
-10.68
-13.21
-15.90
-18.60
-21.01
-22.70
-23.25
-22.38
-20.10
-16.72
-12.72
-8.65
-4.91
-1.73
0.89
3.04
4.79
6.09
6.92
7.26
7.28
7.21
7.34
7.79
8.50
9.26
9.80
9.97
9.76
9.32
8.77
8.19
7.49
6.54
5.19
3.42
1.33
-0.92
-3.13
-5.23
-7.25
-9.35
-11.69
-14.32
-17.12
-19.82
-22.04
-23.40
-23.62
-22.54
-20.16
-16.60
-12.13
-7.12
-2.01
2.74
6.77
9.85
11.88
12.95
13.25
13.01
12.49
11.90
11.37
10.99
10.77
10.71
10.84
11.18
11.69
12.22
12.55
12.44
11.77
10.54
8.91
7.07
5.16
3.29
1.48
-0.23
-1.90
-3.62
-5.59
-8.01
-10.95
-14.26
-17.49
-20.08
-21.46
-21.33
-19.70
-16.87
-13.21
-9.07
-4.68
-0.16
4.32
8.51
12.09
14.76
16.37
17.01
16.95
16.54
16.09
15.74
15.51
15.34
15.23
15.18
15.23
15.34
15.33
14.96
14.03
12.48
10.41
8.07
5.68
3.38
1.16
-1.08
-3.42
-5.86
-8.26
-10.54
-12.68
-14.83
-17.16
-19.77
-22.57
-25.19
-27.14
-27.98
-27.43
-25.46
-22.26
-18.17
-13.55
-8.68
-3.83
0.79
4.94
8.36
10.87
12.39
13.08
13.23
13.19
13.22
13.44
13.82
14.20
14.51
14.69
14.80
14.88
14.97
15.04
14.97
14.61
13.73
12.21
10.00
7.26
4.27
1.30
-1.45
-4.03
-6.61
-9.42
-12.56
-16.01
-19.57
-22.90
-25.67
-27.50
-28.12
-27.33
-25.09
-21.61
-17.30
-12.75
-8.61
-5.42
-3.48
-2.75
-2.89
-3.41
-3.88
-4.13
-4.23
-4.40
-4.81
-5.47
-6.23
-6.95
-7.58
-8.34
-9.57
-11.51
-14.20
-17.43
-20.88
-24.30
-27.58
-30.78
-34.02
-37.40
-40.88
-44.28
-47.34
-49.74
-51.18
-51.45
-50.51
-48.51
-45.75
-42.62
-39.39
-36.27
-33.28
-30.49
-27.97
-25.86
-24.27
-23.20
-22.51
-22.07
-21.82
-21.91
-22.59
-23.93
-25.69
-27.17
-27.47
-25.83
-22.03
-16.66
-10.92
-6.28
-3.94
-4.44
-7.47
-11.92
-16.17
-18.42
-17.03
-10.87
0.30
15.62
33.04
49.64
62.28
68.44
66.97
58.48
45.21
30.36
17.14
7.81
3.19
2.60
4.43
6.92
8.85
9.91
10.60
11.79
14.18
17.97
22.82
28.08
33.17
37.88
42.49
47.79
54.83
64.61
77.82
94.45
113.63
133.66
152.20
166.91
176.09
179.14
176.75
170.49
162.20
153.31
144.60
136.27
128.26
120.58
113.43
106.94
101.06
95.33
89.10
81.73
72.87
62.66
51.69
40.85
31.11
23.13
16.97
12.03
7.34
2.03
-4.13
-10.52
-15.91
-19.08
-19.49
-17.68
-15.01
-13.08
-12.96
-14.61
-17.03
-18.79
-18.93
-17.59
-16.01
-15.93
-18.64
-24.28
-31.64
-38.59
-42.87
-42.57
-36.49
-24.34
-7.04
12.82
31.03
42.64
43.62
32.65
12.09
-12.71
-35.49
-51.68
-60.14
-63.16
-64.78
-68.35
-74.86
-82.50
-87.88
-87.85
-80.94
-68.00
-51.55
-34.69
-19.98
-8.83
-1.64
1.69
1.24
-3.04
-11.12
-22.41
-35.53
-48.44
-58.95
-65.43
-67.47
-66.10
-63.39
-61.64
-62.45
-66.14
-71.68
-77.35
-81.50
-83.25
-82.53
-79.85
-75.74
-70.41
-63.68
-55.35
-45.46
-34.52
-23.46
-13.39
-5.22
0.60
4.16
6.03
6.99
7.80
8.92
10.51
12.40
14.38
16.28
18.00
19.54
20.90
22.09
23.14
24.11
25.11
26.21
27.44
28.66
29.66
30.20
30.08
29.13
27.27
24.46
20.86
16.78
12.76
9.45
7.45
7.09
8.34
10.84
14.00
17.22
20.01
22.09
23.40
24.04
24.16
23.94
23.45
22.75
21.82
20.67
19.39
18.06
16.82
15.73
14.77
13.86
12.89
11.78
10.54
9.20
7.79
6.29
4.62
2.65
0.33
-2.36
-5.33
-8.46
-11.62
-14.69
-17.54
-19.99
-21.77
-22.57
-22.13
-20.34
-17.29
-13.29
-8.73
-3.98
0.71
5.11
9.07
12.39
14.85
16.33
16.82
16.52
15.81
15.09
14.68
14.63
14.77
14.74
14.20
13.06
11.41
9.51
7.62
5.78
3.87
1.66
-1.05
-4.27
-7.85
-11.54
-15.17
-18.62
-21.89
-25.04
-28.06
-30.92
-33.51
-35.60
-36.83
-36.80
-35.10
-31.52
-26.12
-19.35
-11.95
-4.74
1.50
6.31
9.51
11.27
11.89
11.78
11.33
10.82
10.46
10.36
10.54
10.95
11.46
11.90
12.08
11.88
11.27
10.33
9.20
8.04
6.92
5.87
4.78
3.52
1.96
0.08
-2.07
-4.34
-6.57
-8.73
-10.85
-13.13
-15.75
-18.80
-22.20
-25.65
-28.70
-30.80
-31.50
-30.54
-27.90
-23.83
-18.77
-13.18
-7.44
-1.81
3.59
8.61
13.06
16.73
19.38
20.92
21.43
21.15
20.41
19.51
18.67
17.98
17.40
16.84
16.15
15.26
14.11
12.68
11.02
9.21
7.34
5.51
3.80
2.24
0.80
-0.57
-1.96
-3.43
-4.99
-6.66
-8.39
-10.21
-12.18
-14.36
-16.76
-19.31
-21.80
-23.90
-25.23
-25.39
-24.16
-21.49
-17.58
-12.78
-7.54
-2.28
2.64
6.95
10.46
13.10
14.86
15.87
16.27
16.29
16.16
16.04
16.04
16.15
16.26
16.19
15.78
14.96
13.78
12.42
11.01
9.63
8.28
6.85
5.26
3.45
1.45
-0.72
-3.08
-5.60
-8.29
-11.05
-13.77
-16.34
-18.68
-20.78
-22.60
-24.08
-25.04
-25.22
-24.41
-22.49
-19.51
-15.65
-11.20
-6.43
-1.67
2.81
6.71
9.73
11.67
12.49
12.35
11.63
10.77
10.17
9.99
10.19
10.57
10.87
10.91
10.59
9.94
9.03
7.91
6.64
5.29
3.90
2.49
1.10
-0.31
-1.76
-3.30
-4.94
-6.65
-8.36
-10.03
-11.62
-13.23
-14.96
-16.90
-18.98
-20.95
-22.39
-22.85
-22.04
-19.90
-16.63
-12.63
-8.38
-4.32
-0.72
2.29
4.70
6.58
7.99
8.94
9.42
9.43
8.98
8.18
7.20
6.23
5.39
4.76
4.31
3.96
3.63
3.28
2.88
2.45
2.01
1.57
1.10
0.50
-0.35
-1.49
-2.89
-4.40
-5.81
-6.93
-7.68
-8.13
-8.49
-9.00
-9.86
-11.14
-12.75
-14.47
-16.01
-17.07
-17.37
-16.73
-15.10
-12.57
-9.40
-5.94
-2.57
0.43
2.87
4.72
5.99
6.75
7.05
6.97
6.58
5.96
5.23
4.45
3.71
3.06
2.50
1.99
1.44
0.79
-0.02
-0.94
-1.88
-2.73
-3.45
-4.07
-4.68
-5.38
-6.19
-7.07
-7.90
-8.59
-9.02
-9.19
-9.14
-9.01
-8.99
-9.28
-9.94
-10.86
-11.73
-12.16
-11.87
-10.70
-8.71
-6.10
-3.07
0.17
3.51
6.78
9.77
12.21
13.85
14.51
14.17
12.96
11.17
9.12
7.14
5.43
4.05
2.93
1.95
1.01
0.06
-0.85
-1.71
-2.52
-3.36
-4.28
-5.28
-6.26
-7.08
-7.61
-7.77
-7.60
-7.20
-6.73
-6.31
-6.08
-6.10
-6.40
-6.88
-7.37
-7.58
-7.22
-6.03
-3.92
-1.02
2.36
5.72
8.60
10.61
11.63
11.80
11.41
10.86
10.41
10.18
10.13
10.10
9.96
9.60
9.02
8.23
7.28
6.18
4.94
3.58
2.13
0.63
-0.86
-2.29
-3.61
-4.76
-5.69
-6.41
-6.93
-7.30
-7.63
-8.05
-8.67
-9.59
-10.83
-12.32
-13.92
-15.42
-16.57
-17.14
-16.94
-15.90
-14.06
-11.63
-8.93
-6.28
-3.98
-2.22
-1.04
-0.38
-0.14
-0.25
-0.66
-1.28
-2.01
-2.67
-3.10
-3.20
-3.01
-2.60
-2.07
-1.46
-0.81
-0.20
0.26
0.39
0.10
-0.56
-1.41
-2.19
-2.70
-2.91
-2.94
-3.00
-3.24
-3.74
-4.54
-5.63
-6.99
-8.53
-9.99
-11.05
-11.36
-10.71
-9.04
-6.42
-2.94
1.38
6.47
12.11
17.81
22.77
26.16
27.35
26.15
22.86
18.12
12.69
7.25
2.24
-2.05
-5.51
-8.09
-9.79
-10.68
-10.87
-10.59
-10.10
-9.67
-9.55
-9.84
-10.56
-11.62
-12.86
-14.13
-15.32
-16.39
-17.36
-18.28
-19.24
-20.26
-21.36
-22.47
-23.52
-24.40
-24.99
-25.13
-24.68
-23.51
-21.58
-18.99
-15.98
-12.80
-9.70
-6.83
-4.25
-2.00
-0.17
1.15
1.87
2.04
1.79
1.34
0.88
0.51
0.27
0.12
0.06
0.12
0.31
0.65
1.10
1.57
1.96
2.22
2.35
2.39
2.41
2.40
2.34
2.22
1.97
1.62
1.14
0.52
-0.24
-1.12
-1.98
-2.57
-2.58
-1.76
-0.04
2.42
5.32
8.32
11.16
13.72
15.90
17.65
18.87
19.56
19.83
19.91
20.05
20.37
20.82
21.12
21.01
20.31
19.12
17.65
16.15
14.78
13.48
12.15
10.64
8.89
6.97
5.01
3.11
1.31
-0.43
-2.30
-4.46
-7.11
-10.31
-13.95
-17.74
-21.21
-23.84
-25.08
-24.53
-22.01
-17.64
-11.84
-5.35
1.05
6.69
11.24
14.76
17.67
20.41
23.23
26.08
28.61
30.37
31.02
30.44
28.68
25.92
22.35
18.16
13.60
9.03
4.84
1.42
-1.08
-2.72
-3.82
-4.75
-5.82
-7.11
-8.46
-9.66
-10.48
-10.82
-10.71
-10.29
-9.75
-9.22
-8.76
-8.34
-7.84
-7.09
-5.94
-4.27
-2.10
0.43
3.06
5.43
7.18
8.03
7.84
6.65
4.72
2.39
0.02
-2.11
-3.88
-5.27
-6.32
-7.05
-7.47
-7.52
-7.22
-6.63
-5.92
-5.24
-4.75
-4.50
-4.48
-4.64
-4.93
-5.33
-5.83
-6.41
-7.01
-7.63
-8.29
-9.10
-10.22
-11.75
-13.66
-15.77
-17.71
-19.09
-19.55
-18.88
-17.05
-14.24
-10.75
-6.98
-3.34
-0.22
2.10
3.51
4.04
3.85
3.22
2.37
1.52
0.83
0.45
0.50
1.08
2.19
3.71
5.41
7.07
8.49
9.62
10.49
11.20
11.81
12.30
12.65
12.81
12.79
12.61
12.23
11.61
10.68
9.47
8.15
7.05
6.53
6.81
7.95
9.69
11.66
13.40
14.53
14.82
14.18
12.66
10.39
7.59
4.49
1.32
-1.69
-4.36
-6.52
-8.03
-8.77
-8.69
-7.81
-6.25
-4.19
-1.89
0.35
2.29
3.71
4.51
4.70
4.37
3.65
2.62
1.30
-0.35
-2.39
-4.87
-7.79
-11.07
-14.54
-17.96
-20.98
-23.24
-24.39
-24.21
-22.69
-20.01
-16.46
-12.41
-8.24
-4.28
-0.81
1.97
3.96
5.24
5.95
6.34
6.61
6.88
7.13
7.23
7.03
6.48
5.66
4.76
4.00
3.51
3.23
3.03
2.68
2.00
0.85
-0.78
-2.80
-5.05
-7.32
-9.38
-11.02
-12.19
-12.98
-13.65
-14.49
-15.73
-17.45
-19.48
-21.51
-23.11
-23.83
-23.33
-21.48
-18.42
-14.53
-10.28
-6.11
-2.34
0.90
3.58
5.67
7.14
7.95
8.10
7.70
7.00
6.30
5.84
5.74
5.86
5.93
5.67
4.92
3.73
2.39
1.21
0.44
0.11
0.06
-0.01
-0.36
-1.10
-2.21
-3.56
-4.98
-6.36
-7.70
-9.06
-10.56
-12.29
-14.26
-16.41
-18.61
-20.68
-22.40
-23.54
-23.87
-23.20
-21.42
-18.52
-14.64
-10.05
-5.11
-0.17
4.48
8.67
12.29
15.30
17.66
19.31
20.25
20.58
20.49
20.29
20.22
20.42
20.85
21.31
21.55
21.35
20.65
19.55
18.25
16.98
15.92
15.11
14.47
13.81
12.92
11.69
10.11
8.32
6.50
4.74
3.08
1.39
-0.50
-2.72
-5.25
-8.00
-10.70
-13.03
-14.66
-15.29
-14.75
-12.98
-10.12
-6.42
-2.23
2.11
6.28
10.01
13.11
15.45
16.99
17.80
18.00
17.81
17.44
17.04
16.66
16.25
15.71
14.92
13.84
12.55
11.22
10.02
9.06
8.32
7.65
6.84
5.73
4.27
2.55
0.72
-1.05
-2.67
-4.11
-5.39
-6.52
-7.52
-8.45
-9.41
-10.61
-12.22
-14.37
-17.00
-19.85
-22.51
-24.50
-25.38
-24.88
-22.93
-19.66
-15.39
-10.47
-5.31
-0.29
4.21
7.85
10.43
11.93
12.55
12.64
12.57
12.62
12.89
13.28
13.65
13.91
14.04
14.06
13.95
13.59
12.87
11.75
10.35
8.90
7.65
6.72
6.09
5.58
5.00
4.21
3.16
1.87
0.38
-1.24
-2.90
-4.51
-5.92
-7.06
-7.99
-8.88
-9.98
-11.52
-13.59
-16.07
-18.73
-21.20
-23.13
-24.19
-24.18
-22.98
-20.58
-17.11
-12.81
-8.02
-3.18
1.28
5.04
7.93
9.98
11.38
12.32
12.94
13.25
13.16
12.66
11.82
10.89
10.14
9.78
9.80
10.05
10.28
10.26
9.92
9.27
8.43
7.50
6.57
5.67
4.83
4.03
3.24
2.41
1.48
0.40
-0.82
-2.18
-3.64
-5.15
-6.68
-8.19
-9.68
-11.18
-12.79
-14.64
-16.82
-19.19
-21.43
-23.10
-23.70
-22.95
-20.79
-17.40
-13.09
-8.24
-3.17
1.73
6.10
9.64
12.18
13.76
14.65
15.17
15.59
16.07
16.58
17.04
17.35
17.47
17.41
17.17
16.77
16.20
15.45
14.50
13.38
12.14
10.82
9.51
8.23
6.94
5.50
3.83
1.87
-0.25
-2.33
-4.19
-5.75
-7.05
-8.22
-9.37
-10.54
-11.75
-13.04
-14.44
-15.96
-17.40
-18.37
-18.32
-16.82
-13.71
-9.22
-3.91
1.60
6.75
11.22
14.82
17.50
19.24
20.11
20.27
19.94
19.36
18.68
17.90
16.96
15.79
14.37
12.80
11.22
9.73
8.41
7.28
6.32
5.53
4.81
4.03
3.09
1.91
0.52
-0.99
-2.46
-3.84
-5.13
-6.41
-7.78
-9.22
-10.67
-11.98
-13.12
-14.16
-15.36
-16.92
-18.91
-21.15
-23.24
-24.67
-25.03
-24.12
-22.04
-19.04
-15.42
-11.48
-7.49
-3.73
-0.52
1.80
2.98
3.00
2.09
0.69
-0.68
-1.57
-1.73
-1.12
0.14
1.85
3.77
5.70
7.41
8.68
9.34
9.35
8.75
7.71
6.41
4.97
3.42
1.72
-0.12
-2.08
-4.01
-5.78
-7.26
-8.42
-9.28
-9.93
-10.51
-11.14
-12.00
-13.19
-14.74
-16.52
-18.25
-19.56
-20.08
-19.51
-17.72
-14.74
-10.81
-6.24
-1.45
3.17
7.23
10.38
12.43
13.40
13.52
13.20
12.86
12.81
13.12
13.62
14.04
14.17
14.00
13.71
13.51
13.57
13.85
14.21
14.50
14.64
14.66
14.61
14.50
14.26
13.79
13.05
12.05
10.85
9.52
8.08
6.47
4.61
2.47
0.06
-2.53
-5.15
-7.56
-9.43
-10.40
-10.16
-8.59
-5.82
-2.23
1.66
5.31
8.31
10.39
11.48
11.64
11.01
9.78
8.22
6.58
5.12
4.03
3.36
3.02
2.80
2.45
1.84
0.98
0.01
-0.89
-1.58
-2.07
-2.46
-2.89
-3.42
-3.99
-4.52
-4.92
-5.20
-5.45
-5.83
-6.51
-7.67
-9.36
-11.55
-14.07
-16.58
-18.68
-19.92
-20.02
-18.90
-16.71
-13.77
-10.47
-7.10
-3.84
-0.74
2.20
4.97
7.46
9.51
10.94
11.68
11.82
11.56
11.14
10.78
10.56
10.39
10.14
9.62
8.75
7.57
6.20
4.83
3.53
2.30
1.02
-0.39
-1.92
-3.43
-4.74
-5.80
-6.72
-7.79
-9.31
-11.38
-13.82
-16.30
-18.46
-20.15
-21.38
-22.26
-22.77
-22.68
-21.68
-19.50
-16.11
-11.80
-7.05
-2.35
1.91
5.55
8.50
10.75
12.25
12.96
12.85
11.98
10.51
8.75
7.03
5.65
4.82
4.52
4.53
4.56
4.31
3.63
2.58
1.32
0.06
-1.08
-2.06
-2.93
-3.75
-4.47
-5.04
-5.40
-5.58
-5.72
-5.99
-6.55
-7.45
-8.67
-10.12
-11.72
-13.37
-14.90
-16.01
-16.33
-15.52
-13.37
-9.96
-5.63
-0.86
3.89
8.31
12.27
15.71
18.61
20.88
22.46
23.36
23.71
23.75
23.77
24.01
24.60
25.48
26.58
27.74
28.84
29.82
30.69
31.47
32.17
32.72
32.87
32.25
30.43
27.13
22.29
16.19
9.35
2.33
-4.46
-10.84
-16.83
-22.49
-27.80
-32.55
-36.48
-39.35
-41.06
-41.69
-41.37
-40.20
-38.21
-35.39
-31.76
-27.49
-22.84
-18.15
-13.69
-9.68
-6.20
-3.24
-0.76
1.36
3.19
4.82
6.31
7.67
8.91
9.99
10.91
11.65
12.15
12.28
11.87
10.73
8.78
6.08
2.83
-0.61
-3.91
-6.82
-9.25
-11.23
-12.90
-14.36
-15.68
-16.88
-18.00
-19.03
-19.96
-20.62
-20.72
-19.89
-17.81
-14.39
-9.83
-4.57
0.88
6.10
10.83
14.95
18.35
20.91
22.49
23.05
22.67
21.62
20.19
18.62
17.00
15.28
13.43
11.49
9.60
7.97
6.74
5.88
5.22
4.51
3.50
2.11
0.35
-1.62
-3.61
-5.39
-6.75
-7.57
-7.79
-7.51
-6.95
-6.44
-6.27
-6.62
-7.42
-8.37
-8.92
-8.51
-6.66
-3.21
1.69
7.56
13.81
19.91
25.47
30.32
34.42
37.71
40.16
41.74
42.49
42.58
42.26
41.80
41.39
41.09
40.87
40.60
40.17
39.48
38.50
37.22
35.60
33.46
30.61
26.83
22.05
16.44
10.38
4.35
-1.24
-6.18
-10.43
-14.08
-17.22
-19.94
-22.29
-24.32
-26.06
-27.48
-28.43
-28.69
-28.05
-26.46
-24.08
-21.20
-18.15
-15.19
-12.49
-10.17
-8.36
-7.23
-6.90
-7.44
-8.74
-10.53
-12.46
-14.15
-15.32
-15.86
-15.77
-15.18
-14.22
-12.98
-11.51
-9.77
-7.80
-5.75
-3.93
-2.71
-2.35
-2.86
-4.03
-5.48
-6.83
-7.89
-8.67
-9.35
-10.16
-11.31
-12.87
-14.79
-16.93
-19.05
-20.86
-22.03
-22.25
-21.32
-19.17
-15.99
-12.15
-8.14
-4.41
-1.25
1.20
2.98
4.16
4.79
4.93
4.68
4.19
3.70
3.44
3.53
3.97
4.65
5.41
6.14
6.76
7.18
7.32
7.08
6.38
5.21
3.68
1.92
0.09
-1.67
-3.29
-4.75
-6.08
-7.38
-8.78
-10.38
-12.20
-14.15
-16.01
-17.43
-18.03
-17.51
-15.74
-12.87
-9.24
-5.31
-1.53
1.79
4.47
6.47
7.77
8.41
8.44
7.96
7.17
6.25
5.38
4.63
3.99
3.42
2.89
2.46
2.18
2.04
1.96
1.75
1.20
0.22
-1.17
-2.77
-4.33
-5.64
-6.67
-7.57
-8.58
-9.97
-11.87
-14.24
-16.82
-19.23
-21.01
-21.75
-21.18
-19.15
-15.72
-11.19
-6.03
-0.80
3.94
7.75
10.43
12.01
12.70
12.76
12.41
11.80
11.00
10.05
8.98
7.87
6.78
5.77
4.84
4.01
3.30
2.72
2.30
1.97
1.63
1.12
0.30
-0.88
-2.41
-4.14
-5.93
-7.66
-9.25
-10.71
-12.11
-13.52
-14.98
-16.45
-17.72
-18.46
-18.24
-16.71
-13.68
-9.23
-3.81
1.94
7.29
11.68
14.82
16.72
17.59
17.70
17.34
16.72
15.99
15.31
14.81
14.54
14.46
14.45
14.34
14.00
13.43
12.71
11.95
11.22
10.47
9.62
8.54
7.19
5.56
3.76
1.90
0.09
-1.58
-3.05
-4.33
-5.44
-6.51
-7.70
-9.20
-11.12
-13.38
-15.65
-17.41
-18.10
-17.38
-15.16
-11.75
-7.67
-3.50
0.28
3.38
5.62
6.94
7.33
6.89
5.82
4.42
3.01
1.86
1.13
0.82
0.84
1.04
1.30
1.54
1.71
1.83
1.89
1.83
1.55
0.93
-0.13
-1.64
-3.45
-5.37
-7.17
-8.71
-9.97
-10.99
-11.85
-12.61
-13.36
-14.20
-15.29
-16.75
-18.56
-20.48
-22.05
-22.72
-22.08
-20.03
-16.79
-12.81
-8.57
-4.39
-0.39
3.38
6.85
9.81
11.96
13.05
13.05
12.16
10.77
9.31
8.07
7.15
6.53
6.15
5.94
5.88
5.91
5.89
5.70
5.22
4.46
3.61
2.83
2.27
1.90
1.59
1.21
0.70
0.11
-0.48
-1.02
-1.61
-2.41
-3.59
-5.21
-7.19
-9.27
-11.10
-12.29
-12.46
-11.31
-8.77
-4.99
-0.37
4.52
9.15
13.17
16.43
18.90
20.60
21.46
21.44
20.58
19.10
17.34
15.65
14.27
13.25
12.49
11.81
11.06
10.13
8.96
7.57
6.02
4.40
2.83
1.33
-0.11
-1.61
-3.25
-5.05
-6.93
-8.75
-10.42
-11.95
-13.37
-14.73
-16.05
-17.28
-18.32
-19.05
-19.34
-19.03
-17.99
-16.16
-13.62
-10.54
-7.15
-3.69
-0.28
2.98
5.96
8.49
10.35
11.41
11.71
11.47
11.06
10.81
10.95
11.53
12.51
13.80
15.27
16.84
18.37
19.72
20.72
21.28
21.44
21.30
20.98
20.54
19.89
18.83
17.12
14.64
11.49
7.92
4.32
1.01
-1.83
-4.26
-6.47
-8.66
-10.99
-13.36
-15.61
-17.39
-18.39
-18.30
-17.01
-14.58
-11.27
-7.52
-3.79
-0.50
2.10
3.94
5.08
5.61
5.56
4.97
3.88
2.43
0.84
-0.64
-1.88
-2.88
-3.75
-4.63
-5.56
-6.44
-7.13
-7.52
-7.60
-7.54
-7.61
-8.01
-8.87
-10.10
-11.47
-12.70
-13.58
-14.09
-14.36
-14.65
-15.18
-16.07
-17.29
-18.70
-20.13
-21.40
-22.36
-22.82
-22.49
-21.12
-18.56
-14.89
-10.47
-5.79
-1.33
2.61
5.90
8.54
10.52
11.81
12.38
12.31
11.78
11.08
10.41
9.87
9.39
8.86
8.22
7.55
7.00
6.77
6.95
7.52
8.34
9.21
9.91
10.20
9.95
9.09
7.73
6.08
4.38
2.81
1.45
0.29
-0.72
-1.56
-2.16
-2.42
-2.23
-1.50
-0.23
1.60
3.92
6.63
9.53
12.39
14.90
16.90
18.31
19.26
19.90
20.38
20.69
20.73
20.34
19.45
18.14
16.64
15.26
14.20
13.49
12.99
12.42
11.60
10.43
8.95
7.24
5.34
3.22
0.83
-1.79
-4.51
-7.13
-9.43
